SpectraSuite Data File
++++++++++++++++++++++++++++++++++++
Date: Fri Jul 01 17:25:30 CST 2016
User: lahernandez
Dark Spectrum Present: Yes
Reference Spectrum Present: Yes
Number of Sampled Component Spectra: 1
Spectrometers: MAYP112250
Integration Time (usec): 100000 (MAYP112250)
Spectra Averaged: 10 (MAYP112250)
Boxcar Smoothing: 0 (MAYP112250)
Correct for Electrical Dark: No (MAYP112250)
Strobe/Lamp Enabled: No (MAYP112250)
Correct for Detector Non-linearity: No (MAYP112250)
Correct for Stray Light: No (MAYP112250)
Number of Pixels in Processed Spectrum: 2068
>>>>>Begin Processed Spectral Data<<<<<
189.52	-0.000
189.64	-1.398
189.76	-0.943
189.87	-0.431
189.99	-0.237
190.11	0.494
190.23	0.975
190.34	1.111
190.46	1.138
190.58	1.114
190.70	1.139
190.81	1.077
190.93	1.113
191.05	1.143
191.17	1.109
191.28	1.159
191.40	1.099
191.52	1.017
191.64	1.064
191.75	1.091
191.87	1.105
191.99	1.000
192.11	1.061
192.22	1.037
192.34	0.978
192.46	1.035
192.58	0.999
192.69	0.999
192.81	1.061
192.93	1.001
193.04	1.021
193.16	0.986
193.28	0.966
193.40	0.950
193.51	0.957
193.63	0.969
193.75	0.980
193.87	0.938
193.98	0.935
194.10	0.922
194.22	0.948
194.34	0.930
194.45	0.935
194.57	0.908
194.69	0.909
194.80	0.890
194.92	0.903
195.04	0.938
195.16	0.873
195.27	0.904
195.39	0.888
195.51	0.879
195.62	0.895
195.74	0.890
195.86	0.872
195.98	0.880
196.09	0.860
196.21	0.860
196.33	0.851
196.44	0.861
196.56	0.859
196.68	0.851
196.80	0.835
196.91	0.855
197.03	0.848
197.15	0.848
197.26	0.836
197.38	0.815
197.50	0.833
197.62	0.829
197.73	0.835
197.85	0.831
197.97	0.828
198.08	0.822
198.20	0.815
198.32	0.807
198.43	0.811
198.55	0.814
198.67	0.823
198.79	0.811
198.90	0.796
199.02	0.821
199.14	0.809
199.25	0.804
199.37	0.798
199.49	0.787
199.60	0.798
199.72	0.797
199.84	0.808
199.95	0.804
200.07	0.792
200.19	0.792
200.30	0.785
200.42	0.793
200.54	0.790
200.65	0.790
200.77	0.788
200.89	0.763
201.01	0.770
201.12	0.788
201.24	0.781
201.36	0.771
201.47	0.777
201.59	0.771
201.71	0.760
201.82	0.766
201.94	0.757
202.06	0.771
202.17	0.764
202.29	0.768
202.41	0.757
202.52	0.761
202.64	0.757
202.76	0.752
202.87	0.758
202.99	0.753
203.11	0.741
203.22	0.757
203.34	0.750
203.46	0.737
203.57	0.738
203.69	0.739
203.81	0.738
203.92	0.738
204.04	0.724
204.16	0.741
204.27	0.723
204.39	0.733
204.50	0.729
204.62	0.724
204.74	0.727
204.85	0.726
204.97	0.710
205.09	0.706
205.20	0.713
205.32	0.706
205.44	0.706
205.55	0.703
205.67	0.708
205.79	0.703
205.90	0.702
206.02	0.703
206.14	0.710
206.25	0.695
206.37	0.685
206.48	0.687
206.60	0.689
206.72	0.686
206.83	0.686
206.95	0.677
207.07	0.671
207.18	0.663
207.30	0.671
207.42	0.661
207.53	0.664
207.65	0.657
207.76	0.666
207.88	0.657
208.00	0.659
208.11	0.655
208.23	0.642
208.35	0.650
208.46	0.638
208.58	0.638
208.69	0.635
208.81	0.634
208.93	0.626
209.04	0.635
209.16	0.625
209.27	0.626
209.39	0.616
209.51	0.622
209.62	0.610
209.74	0.606
209.86	0.608
209.97	0.589
210.09	0.603
210.20	0.593
210.32	0.593
210.44	0.586
210.55	0.581
210.67	0.582
210.78	0.579
210.90	0.571
211.02	0.572
211.13	0.572
211.25	0.560
211.36	0.561
211.48	0.556
211.60	0.556
211.71	0.556
211.83	0.544
211.94	0.540
212.06	0.536
212.18	0.526
212.29	0.531
212.41	0.532
212.52	0.524
212.64	0.520
212.76	0.517
212.87	0.518
212.99	0.507
213.10	0.505
213.22	0.502
213.34	0.499
213.45	0.494
213.57	0.491
213.68	0.486
213.80	0.485
213.91	0.477
214.03	0.470
214.15	0.468
214.26	0.468
214.38	0.461
214.49	0.461
214.61	0.454
214.73	0.450
214.84	0.448
214.96	0.437
215.07	0.437
215.19	0.438
215.30	0.429
215.42	0.426
215.54	0.426
215.65	0.419
215.77	0.417
215.88	0.413
216.00	0.409
216.11	0.400
216.23	0.404
216.34	0.396
216.46	0.394
216.58	0.389
216.69	0.381
216.81	0.378
216.92	0.381
217.04	0.371
217.15	0.372
217.27	0.359
217.39	0.359
217.50	0.358
217.62	0.354
217.73	0.354
217.85	0.347
217.96	0.342
218.08	0.339
218.19	0.338
218.31	0.333
218.43	0.332
218.54	0.324
218.66	0.318
218.77	0.317
218.89	0.314
219.00	0.314
219.12	0.307
219.23	0.302
219.35	0.303
219.46	0.301
219.58	0.289
219.70	0.290
219.81	0.281
219.93	0.282
220.04	0.282
220.16	0.275
220.27	0.273
220.39	0.270
220.50	0.267
220.62	0.260
220.73	0.260
220.85	0.254
220.96	0.255
221.08	0.249
221.19	0.250
221.31	0.245
221.42	0.239
221.54	0.236
221.66	0.235
221.77	0.234
221.89	0.226
222.00	0.225
222.12	0.222
222.23	0.221
222.35	0.216
222.46	0.216
222.58	0.211
222.69	0.205
222.81	0.206
222.92	0.200
223.04	0.199
223.15	0.198
223.27	0.194
223.38	0.190
223.50	0.185
223.61	0.186
223.73	0.181
223.84	0.182
223.96	0.180
224.07	0.176
224.19	0.172
224.30	0.172
224.42	0.169
224.53	0.165
224.65	0.165
224.76	0.163
224.88	0.160
224.99	0.158
225.11	0.154
225.22	0.153
225.34	0.146
225.45	0.148
225.57	0.148
225.68	0.143
225.80	0.142
225.91	0.139
226.03	0.138
226.14	0.137
226.26	0.134
226.37	0.132
226.49	0.131
226.60	0.128
226.72	0.126
226.83	0.124
226.95	0.122
227.06	0.120
227.18	0.117
227.29	0.116
227.41	0.118
227.52	0.113
227.64	0.111
227.75	0.111
227.87	0.108
227.98	0.108
228.10	0.105
228.21	0.103
228.33	0.100
228.44	0.102
228.55	0.099
228.67	0.097
228.78	0.097
228.90	0.094
229.01	0.098
229.13	0.093
229.24	0.092
229.36	0.087
229.47	0.087
229.59	0.086
229.70	0.086
229.82	0.084
229.93	0.085
230.05	0.081
230.16	0.083
230.28	0.083
230.39	0.078
230.50	0.078
230.62	0.076
230.73	0.076
230.85	0.076
230.96	0.072
231.08	0.072
231.19	0.071
231.31	0.069
231.42	0.072
231.54	0.068
231.65	0.068
231.76	0.065
231.88	0.066
231.99	0.064
232.11	0.062
232.22	0.064
232.34	0.061
232.45	0.061
232.57	0.061
232.68	0.062
232.79	0.060
232.91	0.059
233.02	0.056
233.14	0.054
233.25	0.056
233.37	0.056
233.48	0.054
233.59	0.054
233.71	0.052
233.82	0.053
233.94	0.051
234.05	0.054
234.17	0.051
234.28	0.051
234.40	0.050
234.51	0.050
234.62	0.050
234.74	0.051
234.85	0.046
234.97	0.046
235.08	0.046
235.20	0.040
235.31	0.043
235.42	0.045
235.54	0.044
235.65	0.043
235.77	0.045
235.88	0.044
235.99	0.043
236.11	0.041
236.22	0.042
236.34	0.042
236.45	0.039
236.57	0.041
236.68	0.040
236.79	0.038
236.91	0.038
237.02	0.037
237.14	0.037
237.25	0.039
237.36	0.035
237.48	0.034
237.59	0.036
237.71	0.035
237.82	0.036
237.93	0.034
238.05	0.036
238.16	0.037
238.28	0.036
238.39	0.034
238.50	0.035
238.62	0.033
238.73	0.033
238.85	0.033
238.96	0.033
239.07	0.034
239.19	0.029
239.30	0.033
239.42	0.033
239.53	0.032
239.64	0.032
239.76	0.033
239.87	0.030
239.99	0.030
240.10	0.028
240.21	0.028
240.33	0.027
240.44	0.031
240.55	0.030
240.67	0.029
240.78	0.031
240.90	0.031
241.01	0.030
241.12	0.030
241.24	0.030
241.35	0.023
241.47	0.028
241.58	0.025
241.69	0.027
241.81	0.029
241.92	0.028
242.03	0.027
242.15	0.026
242.26	0.030
242.37	0.026
242.49	0.027
242.60	0.026
242.72	0.027
242.83	0.026
242.94	0.026
243.06	0.026
243.17	0.023
243.28	0.024
243.40	0.024
243.51	0.024
243.63	0.026
243.74	0.024
243.85	0.026
243.97	0.026
244.08	0.025
244.19	0.027
244.31	0.023
244.42	0.026
244.53	0.025
244.65	0.022
244.76	0.023
244.87	0.023
244.99	0.025
245.10	0.023
245.21	0.021
245.33	0.022
245.44	0.021
245.56	0.023
245.67	0.023
245.78	0.026
245.90	0.026
246.01	0.024
246.12	0.021
246.24	0.021
246.35	0.023
246.46	0.023
246.58	0.026
246.69	0.025
246.80	0.023
246.92	0.020
247.03	0.019
247.14	0.023
247.26	0.020
247.37	0.021
247.48	0.021
247.60	0.022
247.71	0.023
247.82	0.022
247.94	0.022
248.05	0.023
248.16	0.019
248.28	0.021
248.39	0.020
248.50	0.021
248.62	0.022
248.73	0.019
248.84	0.020
248.95	0.023
249.07	0.021
249.18	0.021
249.29	0.020
249.41	0.021
249.52	0.021
249.63	0.017
249.75	0.021
249.86	0.020
249.97	0.021
250.09	0.021
250.20	0.019
250.31	0.019
250.43	0.015
250.54	0.018
250.65	0.019
250.76	0.020
250.88	0.020
250.99	0.022
251.10	0.021
251.22	0.017
251.33	0.020
251.44	0.018
251.56	0.018
251.67	0.021
251.78	0.018
251.90	0.019
252.01	0.020
252.12	0.020
252.23	0.017
252.35	0.020
252.46	0.020
252.57	0.021
252.69	0.016
252.80	0.021
252.91	0.016
253.02	0.016
253.14	0.017
253.25	0.019
253.36	0.018
253.48	0.018
253.59	0.018
253.70	0.020
253.81	0.018
253.93	0.019
254.04	0.015
254.15	0.019
254.27	0.019
254.38	0.021
254.49	0.020
254.60	0.020
254.72	0.019
254.83	0.017
254.94	0.017
255.06	0.015
255.17	0.019
255.28	0.017
255.39	0.021
255.51	0.019
255.62	0.014
255.73	0.019
255.84	0.018
255.96	0.019
256.07	0.018
256.18	0.019
256.29	0.020
256.41	0.017
256.52	0.017
256.63	0.018
256.75	0.019
256.86	0.022
256.97	0.019
257.08	0.018
257.20	0.019
257.31	0.020
257.42	0.017
257.53	0.017
257.65	0.017
257.76	0.016
257.87	0.020
257.98	0.019
258.10	0.017
258.21	0.014
258.32	0.017
258.43	0.017
258.55	0.016
258.66	0.019
258.77	0.014
258.88	0.016
259.00	0.017
259.11	0.017
259.22	0.018
259.33	0.016
259.45	0.016
259.56	0.017
259.67	0.016
259.78	0.013
259.89	0.015
260.01	0.017
260.12	0.014
260.23	0.016
260.34	0.016
260.46	0.019
260.57	0.018
260.68	0.017
260.79	0.015
260.91	0.015
261.02	0.014
261.13	0.014
261.24	0.014
261.35	0.015
261.47	0.017
261.58	0.015
261.69	0.015
261.80	0.018
261.92	0.014
262.03	0.016
262.14	0.015
262.25	0.012
262.36	0.016
262.48	0.016
262.59	0.015
262.70	0.014
262.81	0.017
262.93	0.011
263.04	0.017
263.15	0.014
263.26	0.017
263.37	0.013
263.49	0.015
263.60	0.014
263.71	0.018
263.82	0.014
263.93	0.015
264.05	0.015
264.16	0.016
264.27	0.015
264.38	0.015
264.49	0.018
264.61	0.013
264.72	0.015
264.83	0.015
264.94	0.015
265.05	0.018
265.17	0.013
265.28	0.012
265.39	0.015
265.50	0.013
265.61	0.015
265.73	0.013
265.84	0.016
265.95	0.014
266.06	0.010
266.17	0.014
266.29	0.015
266.40	0.012
266.51	0.011
266.62	0.014
266.73	0.012
266.84	0.016
266.96	0.014
267.07	0.015
267.18	0.016
267.29	0.015
267.40	0.017
267.52	0.013
267.63	0.015
267.74	0.014
267.85	0.016
267.96	0.012
268.07	0.012
268.19	0.014
268.30	0.014
268.41	0.012
268.52	0.013
268.63	0.013
268.74	0.013
268.86	0.012
268.97	0.018
269.08	0.014
269.19	0.013
269.30	0.014
269.41	0.013
269.53	0.014
269.64	0.013
269.75	0.012
269.86	0.013
269.97	0.011
270.08	0.013
270.20	0.013
270.31	0.016
270.42	0.010
270.53	0.014
270.64	0.011
270.75	0.011
270.87	0.013
270.98	0.012
271.09	0.014
271.20	0.010
271.31	0.012
271.42	0.015
271.53	0.010
271.65	0.013
271.76	0.013
271.87	0.012
271.98	0.013
272.09	0.013
272.20	0.013
272.31	0.012
272.43	0.011
272.54	0.012
272.65	0.012
272.76	0.014
272.87	0.011
272.98	0.011
273.09	0.009
273.21	0.015
273.32	0.011
273.43	0.013
273.54	0.010
273.65	0.010
273.76	0.008
273.87	0.013
273.98	0.010
274.10	0.014
274.21	0.010
274.32	0.011
274.43	0.013
274.54	0.011
274.65	0.009
274.76	0.009
274.87	0.014
274.99	0.011
275.10	0.010
275.21	0.011
275.32	0.014
275.43	0.014
275.54	0.011
275.65	0.012
275.76	0.012
275.88	0.013
275.99	0.013
276.10	0.009
276.21	0.011
276.32	0.014
276.43	0.008
276.54	0.013
276.65	0.010
276.76	0.012
276.88	0.011
276.99	0.011
277.10	0.011
277.21	0.010
277.32	0.013
277.43	0.012
277.54	0.011
277.65	0.014
277.76	0.011
277.87	0.012
277.99	0.009
278.10	0.011
278.21	0.009
278.32	0.014
278.43	0.006
278.54	0.009
278.65	0.010
278.76	0.014
278.87	0.008
278.98	0.008
279.09	0.011
279.21	0.013
279.32	0.009
279.43	0.010
279.54	0.010
279.65	0.012
279.76	0.010
279.87	0.008
279.98	0.007
280.09	0.008
280.20	0.007
280.31	0.009
280.42	0.009
280.54	0.006
280.65	0.008
280.76	0.006
280.87	0.007
280.98	0.010
281.09	0.008
281.20	0.007
281.31	0.008
281.42	0.006
281.53	0.007
281.64	0.006
281.75	0.008
281.86	0.008
281.97	0.009
282.09	0.009
282.20	0.007
282.31	0.006
282.42	0.012
282.53	0.009
282.64	0.009
282.75	0.011
282.86	0.010
282.97	0.007
283.08	0.010
283.19	0.012
283.30	0.009
283.41	0.008
283.52	0.009
283.63	0.008
283.74	0.010
283.85	0.008
283.97	0.010
284.08	0.005
284.19	0.009
284.30	0.010
284.41	0.004
284.52	0.012
284.63	0.007
284.74	0.009
284.85	0.010
284.96	0.006
285.07	0.008
285.18	0.005
285.29	0.007
285.40	0.007
285.51	0.009
285.62	0.005
285.73	0.008
285.84	0.005
285.95	0.008
286.06	0.008
286.17	0.009
286.28	0.009
286.39	0.009
286.51	0.008
286.62	0.006
286.73	0.010
286.84	0.010
286.95	0.005
287.06	0.006
287.17	0.007
287.28	0.007
287.39	0.005
287.50	0.005
287.61	0.006
287.72	0.009
287.83	0.008
287.94	0.009
288.05	0.008
288.16	0.006
288.27	0.008
288.38	0.008
288.49	0.010
288.60	0.004
288.71	0.008
288.82	0.011
288.93	0.010
289.04	0.008
289.15	0.008
289.26	0.007
289.37	0.007
289.48	0.007
289.59	0.006
289.70	0.010
289.81	0.007
289.92	0.006
290.03	0.010
290.14	0.007
290.25	0.008
290.36	0.011
290.47	0.005
290.58	0.007
290.69	0.004
290.80	0.005
290.91	0.010
291.02	0.005
291.13	0.004
291.24	0.003
291.35	0.005
291.46	0.006
291.57	0.007
291.68	0.010
291.79	0.007
291.90	0.007
292.01	0.007
292.12	0.009
292.23	0.005
292.34	0.006
292.45	0.004
292.56	0.008
292.67	0.005
292.78	0.006
292.89	0.008
293.00	0.008
293.11	0.005
293.22	0.006
293.33	0.006
293.44	0.005
293.55	0.007
293.66	0.009
293.77	0.006
293.88	0.007
293.99	0.005
294.10	0.003
294.21	0.007
294.32	0.005
294.43	0.006
294.54	0.007
294.64	0.005
294.75	0.009
294.86	0.006
294.97	0.007
295.08	0.010
295.19	0.008
295.30	0.005
295.41	0.007
295.52	0.003
295.63	0.005
295.74	0.007
295.85	0.003
295.96	0.005
296.07	0.004
296.18	0.005
296.29	0.008
296.40	0.005
296.51	0.006
296.62	0.008
296.73	0.005
296.84	0.007
296.95	0.003
297.06	0.006
297.17	0.000
297.27	0.007
297.38	0.004
297.49	0.005
297.60	0.004
297.71	0.005
297.82	0.009
297.93	0.004
298.04	0.006
298.15	0.005
298.26	0.009
298.37	0.005
298.48	0.003
298.59	0.005
298.70	0.005
298.81	0.004
298.92	0.007
299.03	0.004
299.13	0.004
299.24	0.003
299.35	0.003
299.46	0.001
299.57	0.002
299.68	0.004
299.79	0.006
299.90	0.004
300.01	0.005
300.12	0.006
300.23	0.003
300.34	0.004
300.45	0.004
300.56	0.003
300.66	0.007
300.77	0.005
300.88	0.007
300.99	0.002
301.10	0.006
301.21	0.004
301.32	0.008
301.43	0.005
301.54	0.005
301.65	0.004
301.76	0.005
301.87	0.006
301.97	0.006
302.08	0.004
302.19	0.007
302.30	0.002
302.41	0.003
302.52	0.005
302.63	0.005
302.74	0.003
302.85	0.005
302.96	0.006
303.06	0.006
303.17	0.006
303.28	0.006
303.39	0.004
303.50	0.003
303.61	0.003
303.72	0.002
303.83	0.006
303.94	0.004
304.05	0.002
304.15	0.006
304.26	0.005
304.37	0.005
304.48	0.006
304.59	0.005
304.70	0.004
304.81	0.003
304.92	0.006
305.03	0.002
305.13	0.005
305.24	0.005
305.35	0.002
305.46	0.002
305.57	0.002
305.68	0.004
305.79	0.001
305.90	0.005
306.01	-0.000
306.11	0.005
306.22	0.004
306.33	0.005
306.44	0.005
306.55	0.004
306.66	0.002
306.77	0.003
306.88	0.002
306.98	0.000
307.09	0.002
307.20	0.001
307.31	0.004
307.42	0.004
307.53	-0.001
307.64	0.001
307.74	0.005
307.85	0.002
307.96	0.003
308.07	0.003
308.18	0.001
308.29	-0.000
308.40	0.003
308.50	-0.001
308.61	0.002
308.72	0.004
308.83	0.002
308.94	0.002
309.05	0.004
309.16	0.002
309.26	0.001
309.37	0.000
309.48	0.006
309.59	0.001
309.70	0.003
309.81	0.003
309.92	0.004
310.02	0.002
310.13	0.003
310.24	0.002
310.35	0.003
310.46	0.005
310.57	0.002
310.68	0.004
310.78	0.003
310.89	0.003
311.00	0.001
311.11	-0.000
311.22	0.003
311.33	0.004
311.43	0.000
311.54	0.002
311.65	-0.001
311.76	0.005
311.87	-0.002
311.98	0.003
312.08	0.003
312.19	0.001
312.30	-0.001
312.41	-0.004
312.52	0.001
312.63	0.002
312.73	0.004
312.84	0.006
312.95	-0.000
313.06	0.003
313.17	0.004
313.27	0.002
313.38	0.002
313.49	0.003
313.60	-0.003
313.71	-0.001
313.82	0.004
313.92	0.001
314.03	0.002
314.14	0.002
314.25	-0.000
314.36	0.001
314.46	0.001
314.57	0.000
314.68	0.000
314.79	0.003
314.90	0.002
315.00	0.004
315.11	-0.001
315.22	-0.000
315.33	0.001
315.44	-0.002
315.55	0.004
315.65	0.003
315.76	-0.001
315.87	-0.000
315.98	0.004
316.09	-0.001
316.19	0.002
316.30	-0.003
316.41	0.003
316.52	0.003
316.63	0.003
316.73	0.001
316.84	0.000
316.95	-0.002
317.06	0.002
317.16	0.002
317.27	-0.001
317.38	0.004
317.49	0.004
317.60	0.001
317.70	0.001
317.81	0.001
317.92	0.001
318.03	0.006
318.14	0.001
318.24	-0.002
318.35	-0.005
318.46	0.001
318.57	0.002
318.67	0.001
318.78	0.001
318.89	0.001
319.00	0.003
319.11	-0.001
319.21	0.000
319.32	-0.001
319.43	-0.001
319.54	-0.001
319.64	0.004
319.75	-0.001
319.86	0.002
319.97	-0.000
320.08	-0.000
320.18	-0.001
320.29	-0.000
320.40	0.000
320.51	0.001
320.61	0.001
320.72	-0.001
320.83	-0.003
320.94	-0.000
321.04	0.000
321.15	-0.003
321.26	-0.003
321.37	0.002
321.47	0.004
321.58	0.003
321.69	-0.003
321.80	-0.003
321.90	-0.001
322.01	-0.002
322.12	0.002
322.23	-0.004
322.33	0.002
322.44	-0.001
322.55	-0.000
322.66	-0.001
322.76	-0.000
322.87	-0.002
322.98	-0.002
323.09	0.001
323.19	-0.004
323.30	0.002
323.41	-0.001
323.52	-0.002
323.62	-0.003
323.73	-0.003
323.84	-0.005
323.95	-0.001
324.05	0.002
324.16	-0.003
324.27	-0.004
324.38	0.000
324.48	-0.001
324.59	-0.002
324.70	-0.005
324.80	0.002
324.91	-0.001
325.02	-0.006
325.13	0.003
325.23	0.002
325.34	0.001
325.45	-0.001
325.56	-0.002
325.66	-0.001
325.77	-0.001
325.88	-0.001
325.98	-0.000
326.09	0.000
326.20	0.002
326.31	-0.002
326.41	-0.001
326.52	0.001
326.63	-0.004
326.73	0.000
326.84	-0.001
326.95	-0.002
327.06	-0.002
327.16	-0.001
327.27	-0.006
327.38	-0.002
327.48	-0.001
327.59	-0.007
327.70	0.001
327.81	-0.002
327.91	-0.000
328.02	-0.003
328.13	-0.003
328.23	-0.002
328.34	-0.001
328.45	-0.002
328.55	-0.002
328.66	-0.002
328.77	-0.003
328.88	-0.002
328.98	-0.004
329.09	-0.003
329.20	-0.006
329.30	-0.004
329.41	-0.001
329.52	-0.002
329.62	-0.001
329.73	-0.003
329.84	-0.001
329.94	-0.002
330.05	-0.001
330.16	-0.002
330.27	-0.003
330.37	-0.000
330.48	-0.003
330.59	-0.004
330.69	-0.001
330.80	-0.004
330.91	-0.003
331.01	-0.006
331.12	-0.005
331.23	-0.003
331.33	-0.003
331.44	-0.005
331.55	-0.002
331.65	-0.003
331.76	-0.002
331.87	-0.006
331.97	-0.005
332.08	-0.005
332.19	-0.005
332.29	-0.004
332.40	-0.008
332.51	-0.004
332.61	-0.001
332.72	-0.005
332.83	-0.003
332.93	-0.006
333.04	0.000
333.15	-0.003
333.25	-0.003
333.36	-0.000
333.47	-0.002
333.57	-0.002
333.68	-0.004
333.79	-0.006
333.89	-0.004
334.00	-0.004
334.11	-0.003
334.21	-0.001
334.32	-0.003
334.43	-0.007
334.53	-0.007
334.64	-0.005
334.75	-0.009
334.85	-0.003
334.96	-0.004
335.07	-0.001
335.17	-0.006
335.28	-0.004
335.38	-0.002
335.49	-0.006
335.60	-0.005
335.70	-0.004
335.81	-0.004
335.92	-0.004
336.02	-0.003
336.13	-0.009
336.24	-0.007
336.34	-0.008
336.45	-0.005
336.55	-0.008
336.66	-0.005
336.77	-0.005
336.87	-0.006
336.98	-0.006
337.09	-0.007
337.19	-0.005
337.30	-0.006
337.41	-0.005
337.51	-0.006
337.62	-0.009
337.72	-0.006
337.83	-0.006
337.94	-0.004
338.04	-0.003
338.15	-0.004
338.26	-0.004
338.36	-0.011
338.47	-0.004
338.57	-0.001
338.68	-0.002
338.79	-0.003
338.89	-0.003
339.00	-0.002
339.10	-0.005
339.21	-0.006
339.32	-0.008
339.42	-0.003
339.53	-0.008
339.64	-0.008
339.74	-0.008
339.85	-0.006
339.95	-0.008
340.06	-0.005
340.17	-0.012
340.27	-0.004
340.38	-0.005
340.48	-0.006
340.59	-0.004
340.70	-0.002
340.80	-0.008
340.91	-0.008
341.01	-0.004
341.12	-0.005
341.23	-0.007
341.33	-0.007
341.44	-0.005
341.54	0.000
341.65	-0.007
341.76	-0.007
341.86	-0.005
341.97	-0.004
342.07	-0.002
342.18	-0.008
342.29	-0.011
342.39	-0.002
342.50	-0.006
342.60	-0.002
342.71	-0.008
342.81	-0.006
342.92	-0.007
343.03	-0.011
343.13	-0.005
343.24	-0.006
343.34	-0.004
343.45	-0.009
343.56	-0.010
343.66	-0.008
343.77	-0.005
343.87	-0.006
343.98	-0.006
344.08	-0.005
344.19	-0.004
344.30	-0.010
344.40	-0.005
344.51	-0.008
344.61	-0.011
344.72	-0.006
344.82	-0.007
344.93	-0.009
345.04	-0.008
345.14	-0.007
345.25	-0.005
345.35	-0.004
345.46	-0.008
345.56	-0.005
345.67	-0.006
345.77	-0.006
345.88	-0.008
345.99	-0.008
346.09	-0.010
346.20	-0.008
346.30	-0.003
346.41	-0.008
346.51	-0.009
346.62	-0.007
346.72	-0.013
346.83	-0.010
346.94	-0.006
347.04	-0.007
347.15	-0.004
347.25	-0.003
347.36	-0.010
347.46	-0.010
347.57	-0.004
347.67	-0.004
347.78	-0.008
347.89	-0.011
347.99	-0.011
348.10	-0.007
348.20	-0.006
348.31	-0.007
348.41	-0.009
348.52	-0.007
348.62	-0.005
348.73	-0.007
348.83	-0.009
348.94	-0.009
349.04	-0.009
349.15	-0.006
349.26	-0.010
349.36	-0.012
349.47	-0.007
349.57	-0.011
349.68	-0.014
349.78	-0.008
349.89	-0.011
349.99	-0.009
350.10	-0.015
350.20	-0.008
350.31	-0.006
350.41	-0.010
350.52	-0.010
350.62	-0.002
350.73	-0.011
350.83	-0.009
350.94	-0.008
351.04	-0.009
351.15	-0.008
351.25	-0.011
351.36	-0.010
351.46	-0.005
351.57	-0.007
351.68	-0.006
351.78	-0.004
351.89	-0.010
351.99	-0.011
352.10	-0.008
352.20	-0.009
352.31	-0.010
352.41	-0.013
352.52	-0.007
352.62	-0.010
352.73	-0.012
352.83	-0.005
352.94	-0.010
353.04	-0.006
353.15	-0.010
353.25	-0.006
353.36	-0.008
353.46	-0.008
353.57	-0.012
353.67	-0.008
353.78	-0.008
353.88	-0.015
353.99	-0.010
354.09	-0.010
354.20	-0.012
354.30	-0.010
354.41	-0.008
354.51	-0.002
354.62	-0.011
354.72	-0.008
354.83	-0.010
354.93	-0.007
355.03	-0.006
355.14	-0.009
355.24	-0.010
355.35	-0.006
355.45	-0.010
355.56	-0.014
355.66	-0.014
355.77	-0.007
355.87	-0.010
355.98	-0.010
356.08	-0.006
356.19	-0.011
356.29	-0.013
356.40	-0.012
356.50	-0.008
356.61	-0.009
356.71	-0.011
356.82	-0.015
356.92	-0.012
357.03	-0.011
357.13	-0.011
357.23	-0.013
357.34	-0.013
357.44	-0.006
357.55	-0.013
357.65	-0.011
357.76	-0.007
357.86	-0.003
357.97	-0.010
358.07	-0.009
358.18	-0.017
358.28	-0.009
358.39	-0.009
358.49	-0.014
358.59	-0.012
358.70	-0.009
358.80	-0.009
358.91	-0.012
359.01	-0.011
359.12	-0.010
359.22	-0.012
359.33	-0.015
359.43	-0.012
359.54	-0.012
359.64	-0.009
359.74	-0.013
359.85	-0.013
359.95	-0.010
360.06	-0.012
360.16	-0.012
360.27	-0.011
360.37	-0.008
360.48	-0.011
360.58	-0.018
360.68	-0.017
360.79	-0.011
360.89	-0.016
361.00	-0.015
361.10	-0.013
361.21	-0.014
361.31	-0.016
361.41	-0.010
361.52	-0.020
361.62	-0.013
361.73	-0.009
361.83	-0.016
361.94	-0.016
362.04	-0.018
362.14	-0.015
362.25	-0.012
362.35	-0.014
362.46	-0.013
362.56	-0.009
362.67	-0.010
362.77	-0.012
362.87	-0.010
362.98	-0.014
363.08	-0.017
363.19	-0.012
363.29	-0.013
363.40	-0.016
363.50	-0.012
363.60	-0.011
363.71	-0.014
363.81	-0.014
363.92	-0.014
364.02	-0.015
364.12	-0.014
364.23	-0.014
364.33	-0.017
364.44	-0.016
364.54	-0.024
364.64	-0.013
364.75	-0.015
364.85	-0.014
364.96	-0.016
365.06	-0.008
365.16	-0.014
365.27	-0.013
365.37	-0.017
365.48	-0.011
365.58	-0.008
365.68	-0.016
365.79	-0.009
365.89	-0.010
366.00	-0.013
366.10	-0.017
366.20	-0.017
366.31	-0.012
366.41	-0.017
366.52	-0.017
366.62	-0.014
366.72	-0.012
366.83	-0.010
366.93	-0.013
367.04	-0.015
367.14	-0.016
367.24	-0.016
367.35	-0.012
367.45	-0.019
367.55	-0.012
367.66	-0.014
367.76	-0.009
367.87	-0.011
367.97	-0.024
368.07	-0.013
368.18	-0.017
368.28	-0.020
368.39	-0.019
368.49	-0.017
368.59	-0.015
368.70	-0.013
368.80	-0.015
368.90	-0.018
369.01	-0.015
369.11	-0.018
369.21	-0.027
369.32	-0.016
369.42	-0.014
369.53	-0.012
369.63	-0.013
369.73	-0.018
369.84	-0.019
369.94	-0.014
370.04	-0.013
370.15	-0.013
370.25	-0.020
370.35	-0.021
370.46	-0.019
370.56	-0.021
370.67	-0.023
370.77	-0.020
370.87	-0.018
370.98	-0.012
371.08	-0.016
371.18	-0.013
371.29	-0.014
371.39	-0.015
371.49	-0.020
371.60	-0.018
371.70	-0.017
371.80	-0.021
371.91	-0.017
372.01	-0.015
372.11	-0.014
372.22	-0.019
372.32	-0.018
372.42	-0.016
372.53	-0.015
372.63	-0.017
372.74	-0.015
372.84	-0.017
372.94	-0.022
373.05	-0.018
373.15	-0.018
373.25	-0.015
373.36	-0.013
373.46	-0.016
373.56	-0.023
373.67	-0.027
373.77	-0.008
373.87	-0.014
373.98	-0.019
374.08	-0.010
374.18	-0.020
374.29	-0.013
374.39	-0.009
374.49	-0.010
374.59	-0.017
374.70	-0.013
374.80	-0.016
374.90	-0.021
375.01	-0.021
375.11	-0.015
375.21	-0.015
375.32	-0.015
375.42	-0.014
375.52	-0.016
375.63	-0.018
375.73	-0.021
375.83	-0.014
375.94	-0.013
376.04	-0.023
376.14	-0.013
376.25	-0.015
376.35	-0.020
376.45	-0.019
376.55	-0.015
376.66	-0.018
376.76	-0.020
376.86	-0.015
376.97	-0.015
377.07	-0.024
377.17	-0.016
377.28	-0.017
377.38	-0.017
377.48	-0.023
377.59	-0.019
377.69	-0.016
377.79	-0.016
377.89	-0.018
378.00	-0.018
378.10	-0.016
378.20	-0.018
378.31	-0.018
378.41	-0.020
378.51	-0.016
378.61	-0.012
378.72	-0.025
378.82	-0.008
378.92	-0.012
379.03	-0.016
379.13	-0.015
379.23	-0.015
379.33	-0.012
379.44	-0.011
379.54	-0.020
379.64	-0.013
379.75	-0.013
379.85	-0.012
379.95	-0.017
380.05	-0.011
380.16	-0.015
380.26	-0.015
380.36	-0.020
380.47	-0.015
380.57	-0.010
380.67	-0.016
380.77	-0.017
380.88	-0.019
380.98	-0.021
381.08	-0.015
381.18	-0.011
381.29	-0.022
381.39	-0.015
381.49	-0.021
381.60	-0.020
381.70	-0.021
381.80	-0.014
381.90	-0.017
382.01	-0.020
382.11	-0.019
382.21	-0.010
382.31	-0.017
382.42	-0.014
382.52	-0.017
382.62	-0.014
382.72	-0.019
382.83	-0.015
382.93	-0.021
383.03	-0.016
383.13	-0.020
383.24	-0.015
383.34	-0.013
383.44	-0.017
383.54	-0.016
383.65	-0.020
383.75	-0.018
383.85	-0.011
383.95	-0.011
384.06	-0.016
384.16	-0.020
384.26	-0.017
384.36	-0.017
384.47	-0.015
384.57	-0.018
384.67	-0.017
384.77	-0.018
384.88	-0.013
384.98	-0.009
385.08	-0.017
385.18	-0.018
385.28	-0.013
385.39	-0.019
385.49	-0.021
385.59	-0.011
385.69	-0.020
385.80	-0.023
385.90	-0.014
386.00	-0.021
386.10	-0.019
386.21	-0.011
386.31	-0.015
386.41	-0.016
386.51	-0.017
386.61	-0.019
386.72	-0.013
386.82	-0.013
386.92	-0.017
387.02	-0.017
387.13	-0.023
387.23	-0.014
387.33	-0.025
387.43	-0.019
387.53	-0.021
387.64	-0.021
387.74	-0.014
387.84	-0.022
387.94	-0.013
388.05	-0.020
388.15	-0.020
388.25	-0.012
388.35	-0.025
388.45	-0.015
388.56	-0.017
388.66	-0.020
388.76	-0.013
388.86	-0.019
388.96	-0.018
389.07	-0.017
389.17	-0.017
389.27	-0.024
389.37	-0.019
389.47	-0.021
389.58	-0.021
389.68	-0.021
389.78	-0.022
389.88	-0.023
389.98	-0.013
390.09	-0.020
390.19	-0.018
390.29	-0.014
390.39	-0.021
390.49	-0.014
390.60	-0.013
390.70	-0.017
390.80	-0.018
390.90	-0.025
391.00	-0.023
391.10	-0.011
391.21	-0.021
391.31	-0.021
391.41	-0.019
391.51	-0.023
391.61	-0.026
391.72	-0.016
391.82	-0.021
391.92	-0.015
392.02	-0.028
392.12	-0.023
392.22	-0.030
392.33	-0.020
392.43	-0.023
392.53	-0.025
392.63	-0.022
392.73	-0.020
392.83	-0.019
392.94	-0.015
393.04	-0.017
393.14	-0.016
393.24	-0.014
393.34	-0.020
393.45	-0.025
393.55	-0.019
393.65	-0.018
393.75	-0.019
393.85	-0.019
393.95	-0.017
394.05	-0.023
394.16	-0.025
394.26	-0.024
394.36	-0.020
394.46	-0.019
394.56	-0.020
394.66	-0.017
394.77	-0.021
394.87	-0.024
394.97	-0.022
395.07	-0.021
395.17	-0.025
395.27	-0.016
395.37	-0.016
395.48	-0.025
395.58	-0.020
395.68	-0.020
395.78	-0.021
395.88	-0.022
395.98	-0.022
396.09	-0.021
396.19	-0.021
396.29	-0.024
396.39	-0.022
396.49	-0.020
396.59	-0.017
396.69	-0.027
396.80	-0.015
396.90	-0.018
397.00	-0.030
397.10	-0.021
397.20	-0.016
397.30	-0.016
397.40	-0.027
397.50	-0.030
397.61	-0.022
397.71	-0.023
397.81	-0.026
397.91	-0.025
398.01	-0.029
398.11	-0.022
398.21	-0.024
398.31	-0.026
398.42	-0.015
398.52	-0.012
398.62	-0.020
398.72	-0.023
398.82	-0.022
398.92	-0.023
399.02	-0.025
399.12	-0.019
399.23	-0.027
399.33	-0.014
399.43	-0.026
399.53	-0.018
399.63	-0.018
399.73	-0.026
399.83	-0.027
399.93	-0.021
400.03	-0.023
400.14	-0.023
400.24	-0.019
400.34	-0.025
400.44	-0.025
400.54	-0.028
400.64	-0.025
400.74	-0.022
400.84	-0.028
400.94	-0.022
401.05	-0.028
401.15	-0.021
401.25	-0.025
401.35	-0.035
401.45	-0.025
401.55	-0.024
401.65	-0.025
401.75	-0.026
401.85	-0.027
401.95	-0.024
402.05	-0.028
402.16	-0.024
402.26	-0.025
402.36	-0.032
402.46	-0.027
402.56	-0.020
402.66	-0.020
402.76	-0.027
402.86	-0.026
402.96	-0.026
403.06	-0.029
403.16	-0.034
403.27	-0.029
403.37	-0.026
403.47	-0.029
403.57	-0.030
403.67	-0.029
403.77	-0.020
403.87	-0.033
403.97	-0.032
404.07	-0.031
404.17	-0.033
404.27	-0.034
404.37	-0.039
404.47	-0.025
404.58	-0.039
404.68	-0.045
404.78	-0.034
404.88	-0.030
404.98	-0.024
405.08	-0.036
405.18	-0.031
405.28	-0.038
405.38	-0.036
405.48	-0.031
405.58	-0.036
405.68	-0.031
405.78	-0.040
405.88	-0.037
405.98	-0.038
406.09	-0.039
406.19	-0.034
406.29	-0.037
406.39	-0.033
406.49	-0.026
406.59	-0.038
406.69	-0.042
406.79	-0.039
406.89	-0.040
406.99	-0.032
407.09	-0.048
407.19	-0.046
407.29	-0.045
407.39	-0.048
407.49	-0.038
407.59	-0.049
407.69	-0.044
407.79	-0.056
407.89	-0.048
407.99	-0.056
408.10	-0.055
408.20	-0.036
408.30	-0.035
408.40	-0.050
408.50	-0.049
408.60	-0.046
408.70	-0.049
408.80	-0.051
408.90	-0.055
409.00	-0.042
409.10	-0.066
409.20	-0.036
409.30	-0.056
409.40	-0.051
409.50	-0.054
409.60	-0.056
409.70	-0.062
409.80	-0.060
409.90	-0.065
410.00	-0.070
410.10	-0.058
410.20	-0.071
410.30	-0.060
410.40	-0.064
410.50	-0.049
410.60	-0.058
410.70	-0.084
410.80	-0.077
410.90	-0.078
411.00	-0.083
411.10	-0.078
411.20	-0.079
411.30	-0.099
411.40	-0.074
411.50	-0.079
411.60	-0.095
411.70	-0.073
411.80	-0.094
411.90	-0.081
412.00	-0.098
412.10	-0.110
412.20	-0.110
412.30	-0.115
412.40	-0.120
412.51	-0.107
412.61	-0.149
412.71	-0.108
412.81	-0.116
412.91	-0.123
413.01	-0.138
413.11	-0.161
413.21	-0.140
413.31	-0.166
413.40	-0.161
413.50	-0.165
413.60	-0.168
413.70	-0.226
413.80	-0.343
413.90	-0.000
414.00	-0.000
414.10	-0.000
414.20	-0.606
414.30	-1.118
>>>>>End Processed Spectral Data<<<<<
