SpectraSuite Data File
++++++++++++++++++++++++++++++++++++
Date: Wed Feb 10 18:42:23 CST 2016
User: lahernandez
Dark Spectrum Present: Yes
Reference Spectrum Present: Yes
Number of Sampled Component Spectra: 1
Spectrometers: MAYP112250
Integration Time (usec): 100000 (MAYP112250)
Spectra Averaged: 30 (MAYP112250)
Boxcar Smoothing: 0 (MAYP112250)
Correct for Electrical Dark: No (MAYP112250)
Strobe/Lamp Enabled: No (MAYP112250)
Correct for Detector Non-linearity: Yes (MAYP112250)
Correct for Stray Light: No (MAYP112250)
Number of Pixels in Processed Spectrum: 2068
>>>>>Begin Processed Spectral Data<<<<<
189.52	-0.025
189.64	-0.013
189.76	-0.039
189.87	-0.026
189.99	0.053
190.11	0.162
190.23	0.241
190.34	0.252
190.46	0.250
190.58	0.254
190.70	0.254
190.81	0.259
190.93	0.258
191.05	0.262
191.17	0.264
191.28	0.267
191.40	0.266
191.52	0.266
191.64	0.267
191.75	0.269
191.87	0.272
191.99	0.272
192.11	0.273
192.22	0.277
192.34	0.274
192.46	0.280
192.58	0.278
192.69	0.282
192.81	0.286
192.93	0.286
193.04	0.283
193.16	0.288
193.28	0.290
193.40	0.293
193.51	0.289
193.63	0.291
193.75	0.289
193.87	0.290
193.98	0.293
194.10	0.296
194.22	0.299
194.34	0.298
194.45	0.294
194.57	0.298
194.69	0.298
194.80	0.299
194.92	0.305
195.04	0.304
195.16	0.302
195.27	0.309
195.39	0.305
195.51	0.306
195.62	0.307
195.74	0.308
195.86	0.309
195.98	0.309
196.09	0.307
196.21	0.308
196.33	0.309
196.44	0.314
196.56	0.312
196.68	0.311
196.80	0.315
196.91	0.312
197.03	0.313
197.15	0.313
197.26	0.314
197.38	0.314
197.50	0.313
197.62	0.315
197.73	0.314
197.85	0.319
197.97	0.317
198.08	0.318
198.20	0.318
198.32	0.317
198.43	0.320
198.55	0.320
198.67	0.323
198.79	0.323
198.90	0.320
199.02	0.321
199.14	0.320
199.25	0.321
199.37	0.324
199.49	0.322
199.60	0.323
199.72	0.322
199.84	0.325
199.95	0.324
200.07	0.325
200.19	0.322
200.30	0.324
200.42	0.323
200.54	0.322
200.65	0.321
200.77	0.322
200.89	0.324
201.01	0.325
201.12	0.323
201.24	0.323
201.36	0.321
201.47	0.323
201.59	0.323
201.71	0.326
201.82	0.325
201.94	0.319
202.06	0.325
202.17	0.327
202.29	0.325
202.41	0.324
202.52	0.325
202.64	0.321
202.76	0.321
202.87	0.321
202.99	0.322
203.11	0.322
203.22	0.320
203.34	0.321
203.46	0.320
203.57	0.320
203.69	0.318
203.81	0.317
203.92	0.319
204.04	0.317
204.16	0.317
204.27	0.317
204.39	0.317
204.50	0.316
204.62	0.317
204.74	0.314
204.85	0.314
204.97	0.312
205.09	0.313
205.20	0.313
205.32	0.310
205.44	0.310
205.55	0.308
205.67	0.309
205.79	0.310
205.90	0.307
206.02	0.306
206.14	0.306
206.25	0.306
206.37	0.307
206.48	0.305
206.60	0.304
206.72	0.302
206.83	0.301
206.95	0.300
207.07	0.299
207.18	0.300
207.30	0.298
207.42	0.296
207.53	0.296
207.65	0.295
207.76	0.294
207.88	0.295
208.00	0.294
208.11	0.293
208.23	0.288
208.35	0.286
208.46	0.288
208.58	0.286
208.69	0.286
208.81	0.282
208.93	0.283
209.04	0.282
209.16	0.278
209.27	0.278
209.39	0.278
209.51	0.274
209.62	0.273
209.74	0.275
209.86	0.273
209.97	0.271
210.09	0.270
210.20	0.269
210.32	0.267
210.44	0.265
210.55	0.263
210.67	0.261
210.78	0.261
210.90	0.259
211.02	0.259
211.13	0.257
211.25	0.254
211.36	0.253
211.48	0.252
211.60	0.250
211.71	0.248
211.83	0.244
211.94	0.243
212.06	0.244
212.18	0.241
212.29	0.238
212.41	0.239
212.52	0.238
212.64	0.235
212.76	0.235
212.87	0.231
212.99	0.228
213.10	0.226
213.22	0.227
213.34	0.221
213.45	0.220
213.57	0.220
213.68	0.216
213.80	0.216
213.91	0.214
214.03	0.212
214.15	0.210
214.26	0.211
214.38	0.206
214.49	0.207
214.61	0.204
214.73	0.202
214.84	0.199
214.96	0.198
215.07	0.197
215.19	0.195
215.30	0.195
215.42	0.190
215.54	0.189
215.65	0.186
215.77	0.185
215.88	0.183
216.00	0.181
216.11	0.180
216.23	0.178
216.34	0.175
216.46	0.175
216.58	0.174
216.69	0.171
216.81	0.169
216.92	0.167
217.04	0.165
217.15	0.165
217.27	0.160
217.39	0.160
217.50	0.156
217.62	0.153
217.73	0.154
217.85	0.153
217.96	0.149
218.08	0.148
218.19	0.147
218.31	0.144
218.43	0.143
218.54	0.142
218.66	0.142
218.77	0.140
218.89	0.137
219.00	0.135
219.12	0.134
219.23	0.131
219.35	0.129
219.46	0.127
219.58	0.126
219.70	0.125
219.81	0.125
219.93	0.121
220.04	0.121
220.16	0.119
220.27	0.118
220.39	0.117
220.50	0.115
220.62	0.114
220.73	0.111
220.85	0.109
220.96	0.107
221.08	0.105
221.19	0.104
221.31	0.103
221.42	0.101
221.54	0.100
221.66	0.096
221.77	0.097
221.89	0.096
222.00	0.093
222.12	0.093
222.23	0.091
222.35	0.089
222.46	0.086
222.58	0.085
222.69	0.085
222.81	0.085
222.92	0.082
223.04	0.082
223.15	0.079
223.27	0.079
223.38	0.079
223.50	0.075
223.61	0.075
223.73	0.074
223.84	0.072
223.96	0.071
224.07	0.071
224.19	0.070
224.30	0.067
224.42	0.068
224.53	0.066
224.65	0.064
224.76	0.063
224.88	0.063
224.99	0.062
225.11	0.060
225.22	0.059
225.34	0.058
225.45	0.058
225.57	0.057
225.68	0.055
225.80	0.054
225.91	0.053
226.03	0.052
226.14	0.051
226.26	0.050
226.37	0.049
226.49	0.048
226.60	0.046
226.72	0.045
226.83	0.045
226.95	0.044
227.06	0.043
227.18	0.043
227.29	0.042
227.41	0.040
227.52	0.041
227.64	0.040
227.75	0.039
227.87	0.038
227.98	0.037
228.10	0.037
228.21	0.035
228.33	0.037
228.44	0.034
228.55	0.035
228.67	0.032
228.78	0.034
228.90	0.032
229.01	0.032
229.13	0.032
229.24	0.031
229.36	0.031
229.47	0.028
229.59	0.028
229.70	0.028
229.82	0.026
229.93	0.026
230.05	0.026
230.16	0.025
230.28	0.023
230.39	0.024
230.50	0.023
230.62	0.023
230.73	0.022
230.85	0.023
230.96	0.022
231.08	0.021
231.19	0.021
231.31	0.021
231.42	0.020
231.54	0.019
231.65	0.020
231.76	0.020
231.88	0.018
231.99	0.018
232.11	0.018
232.22	0.016
232.34	0.017
232.45	0.015
232.57	0.014
232.68	0.016
232.79	0.016
232.91	0.015
233.02	0.014
233.14	0.014
233.25	0.013
233.37	0.014
233.48	0.014
233.59	0.012
233.71	0.012
233.82	0.011
233.94	0.011
234.05	0.010
234.17	0.011
234.28	0.010
234.40	0.012
234.51	0.010
234.62	0.010
234.74	0.010
234.85	0.009
234.97	0.009
235.08	0.009
235.20	0.009
235.31	0.008
235.42	0.008
235.54	0.009
235.65	0.008
235.77	0.009
235.88	0.009
235.99	0.009
236.11	0.009
236.22	0.008
236.34	0.007
236.45	0.008
236.57	0.008
236.68	0.007
236.79	0.007
236.91	0.008
237.02	0.007
237.14	0.006
237.25	0.007
237.36	0.007
237.48	0.005
237.59	0.006
237.71	0.005
237.82	0.007
237.93	0.005
238.05	0.006
238.16	0.005
238.28	0.005
238.39	0.004
238.50	0.004
238.62	0.002
238.73	0.004
238.85	0.003
238.96	0.003
239.07	0.004
239.19	0.002
239.30	0.004
239.42	0.003
239.53	0.004
239.64	0.003
239.76	0.003
239.87	0.002
239.99	0.003
240.10	0.002
240.21	0.001
240.33	0.002
240.44	0.002
240.55	0.002
240.67	0.002
240.78	0.001
240.90	0.002
241.01	0.003
241.12	0.001
241.24	0.001
241.35	0.002
241.47	0.003
241.58	0.003
241.69	0.003
241.81	0.003
241.92	0.003
242.03	0.002
242.15	0.001
242.26	0.001
242.37	0.001
242.49	0.001
242.60	0.003
242.72	0.003
242.83	0.001
242.94	0.000
243.06	0.001
243.17	0.001
243.28	-0.000
243.40	0.002
243.51	0.002
243.63	-0.001
243.74	0.001
243.85	0.000
243.97	0.001
244.08	0.001
244.19	0.000
244.31	0.001
244.42	0.001
244.53	0.001
244.65	0.001
244.76	0.001
244.87	0.002
244.99	0.000
245.10	0.001
245.21	-0.000
245.33	-0.001
245.44	-0.001
245.56	-0.001
245.67	0.000
245.78	-0.002
245.90	-0.001
246.01	0.001
246.12	-0.000
246.24	0.001
246.35	-0.000
246.46	0.000
246.58	0.001
246.69	0.000
246.80	0.001
246.92	0.001
247.03	0.001
247.14	-0.001
247.26	-0.001
247.37	-0.001
247.48	0.000
247.60	-0.001
247.71	-0.001
247.82	0.000
247.94	-0.000
248.05	-0.000
248.16	-0.000
248.28	-0.001
248.39	-0.002
248.50	-0.001
248.62	0.001
248.73	0.000
248.84	-0.000
248.95	0.000
249.07	0.001
249.18	0.001
249.29	-0.001
249.41	-0.001
249.52	-0.001
249.63	-0.002
249.75	-0.001
249.86	-0.003
249.97	-0.002
250.09	-0.001
250.20	-0.001
250.31	-0.001
250.43	-0.002
250.54	-0.003
250.65	-0.002
250.76	-0.002
250.88	-0.001
250.99	0.000
251.10	-0.001
251.22	-0.000
251.33	-0.001
251.44	-0.001
251.56	0.000
251.67	-0.001
251.78	-0.001
251.90	-0.001
252.01	-0.002
252.12	-0.002
252.23	-0.001
252.35	-0.001
252.46	-0.001
252.57	-0.002
252.69	-0.002
252.80	-0.001
252.91	-0.002
253.02	-0.000
253.14	-0.001
253.25	0.000
253.36	-0.001
253.48	-0.001
253.59	-0.001
253.70	0.000
253.81	-0.001
253.93	0.000
254.04	0.001
254.15	0.000
254.27	-0.001
254.38	0.000
254.49	-0.002
254.60	-0.001
254.72	-0.001
254.83	-0.002
254.94	0.001
255.06	-0.001
255.17	0.000
255.28	-0.000
255.39	-0.001
255.51	-0.001
255.62	-0.001
255.73	-0.003
255.84	-0.001
255.96	-0.002
256.07	-0.003
256.18	-0.004
256.29	-0.003
256.41	-0.002
256.52	-0.003
256.63	-0.003
256.75	-0.002
256.86	-0.004
256.97	-0.001
257.08	-0.002
257.20	-0.001
257.31	-0.000
257.42	0.000
257.53	-0.001
257.65	-0.001
257.76	-0.001
257.87	-0.002
257.98	-0.001
258.10	-0.002
258.21	-0.003
258.32	-0.002
258.43	-0.002
258.55	-0.002
258.66	-0.001
258.77	-0.001
258.88	-0.001
259.00	-0.001
259.11	-0.002
259.22	-0.001
259.33	-0.002
259.45	-0.002
259.56	-0.002
259.67	-0.002
259.78	-0.003
259.89	-0.002
260.01	-0.002
260.12	-0.001
260.23	-0.002
260.34	-0.001
260.46	-0.001
260.57	-0.002
260.68	-0.003
260.79	-0.003
260.91	-0.002
261.02	-0.001
261.13	-0.001
261.24	-0.002
261.35	-0.001
261.47	-0.001
261.58	-0.001
261.69	-0.001
261.80	-0.001
261.92	-0.001
262.03	0.001
262.14	-0.001
262.25	-0.001
262.36	-0.000
262.48	-0.001
262.59	-0.002
262.70	-0.001
262.81	-0.000
262.93	-0.001
263.04	-0.001
263.15	-0.001
263.26	-0.001
263.37	-0.001
263.49	-0.002
263.60	-0.001
263.71	-0.001
263.82	-0.001
263.93	-0.002
264.05	0.001
264.16	-0.001
264.27	-0.001
264.38	-0.001
264.49	-0.001
264.61	0.000
264.72	-0.001
264.83	0.002
264.94	0.000
265.05	0.000
265.17	-0.002
265.28	-0.001
265.39	-0.001
265.50	-0.001
265.61	-0.002
265.73	-0.002
265.84	-0.001
265.95	-0.001
266.06	-0.001
266.17	-0.000
266.29	0.000
266.40	-0.002
266.51	-0.001
266.62	-0.002
266.73	-0.002
266.84	-0.002
266.96	-0.003
267.07	-0.002
267.18	-0.001
267.29	-0.000
267.40	0.000
267.52	-0.003
267.63	0.001
267.74	0.001
267.85	-0.002
267.96	-0.001
268.07	-0.001
268.19	-0.003
268.30	-0.002
268.41	-0.001
268.52	-0.001
268.63	0.001
268.74	-0.002
268.86	-0.001
268.97	-0.000
269.08	-0.001
269.19	-0.003
269.30	-0.001
269.41	-0.000
269.53	-0.000
269.64	-0.002
269.75	-0.001
269.86	-0.004
269.97	-0.002
270.08	-0.002
270.20	-0.001
270.31	-0.004
270.42	-0.002
270.53	-0.002
270.64	-0.002
270.75	-0.002
270.87	-0.002
270.98	0.000
271.09	-0.001
271.20	-0.001
271.31	-0.000
271.42	-0.001
271.53	-0.000
271.65	-0.001
271.76	-0.002
271.87	0.001
271.98	0.000
272.09	-0.002
272.20	-0.000
272.31	-0.002
272.43	-0.001
272.54	-0.002
272.65	-0.002
272.76	-0.002
272.87	-0.001
272.98	-0.003
273.09	-0.003
273.21	-0.002
273.32	-0.002
273.43	-0.002
273.54	-0.002
273.65	0.000
273.76	-0.002
273.87	-0.000
273.98	-0.002
274.10	-0.001
274.21	-0.002
274.32	-0.002
274.43	-0.000
274.54	-0.002
274.65	-0.000
274.76	-0.001
274.87	-0.001
274.99	-0.001
275.10	-0.001
275.21	0.001
275.32	-0.002
275.43	-0.002
275.54	-0.003
275.65	0.000
275.76	-0.002
275.88	-0.002
275.99	-0.002
276.10	-0.001
276.21	-0.002
276.32	-0.003
276.43	-0.002
276.54	0.001
276.65	-0.002
276.76	-0.001
276.88	-0.001
276.99	-0.004
277.10	0.000
277.21	-0.001
277.32	-0.002
277.43	-0.002
277.54	-0.002
277.65	-0.002
277.76	-0.002
277.87	-0.002
277.99	-0.002
278.10	-0.004
278.21	-0.003
278.32	-0.000
278.43	-0.001
278.54	-0.002
278.65	-0.001
278.76	-0.002
278.87	-0.002
278.98	-0.001
279.09	-0.002
279.21	0.001
279.32	0.001
279.43	-0.001
279.54	0.001
279.65	-0.000
279.76	-0.001
279.87	-0.001
279.98	0.000
280.09	-0.000
280.20	-0.001
280.31	-0.001
280.42	0.002
280.54	0.001
280.65	0.000
280.76	0.001
280.87	0.001
280.98	0.001
281.09	-0.000
281.20	0.001
281.31	0.001
281.42	-0.000
281.53	-0.001
281.64	-0.002
281.75	-0.001
281.86	-0.001
281.97	-0.000
282.09	-0.001
282.20	-0.003
282.31	-0.001
282.42	-0.003
282.53	-0.001
282.64	-0.004
282.75	-0.003
282.86	-0.000
282.97	-0.002
283.08	-0.002
283.19	-0.001
283.30	-0.000
283.41	-0.001
283.52	0.000
283.63	-0.000
283.74	-0.003
283.85	-0.003
283.97	-0.003
284.08	-0.001
284.19	-0.001
284.30	0.000
284.41	-0.003
284.52	-0.000
284.63	-0.001
284.74	-0.002
284.85	-0.002
284.96	-0.003
285.07	-0.004
285.18	-0.001
285.29	0.001
285.40	0.001
285.51	-0.000
285.62	-0.001
285.73	-0.000
285.84	-0.002
285.95	0.000
286.06	-0.000
286.17	0.001
286.28	-0.000
286.39	0.000
286.51	-0.001
286.62	0.000
286.73	-0.000
286.84	-0.005
286.95	-0.001
287.06	-0.001
287.17	0.001
287.28	-0.002
287.39	0.002
287.50	0.001
287.61	0.000
287.72	0.002
287.83	-0.001
287.94	-0.002
288.05	-0.001
288.16	-0.001
288.27	-0.002
288.38	0.001
288.49	-0.001
288.60	-0.002
288.71	0.001
288.82	-0.002
288.93	-0.001
289.04	0.001
289.15	-0.001
289.26	-0.000
289.37	-0.001
289.48	-0.001
289.59	-0.002
289.70	-0.000
289.81	0.001
289.92	-0.001
290.03	0.001
290.14	-0.003
290.25	-0.002
290.36	-0.002
290.47	-0.001
290.58	-0.003
290.69	-0.002
290.80	-0.003
290.91	-0.002
291.02	-0.002
291.13	-0.001
291.24	-0.002
291.35	-0.002
291.46	-0.003
291.57	-0.002
291.68	-0.001
291.79	-0.003
291.90	-0.000
292.01	-0.002
292.12	-0.002
292.23	0.000
292.34	-0.002
292.45	-0.001
292.56	-0.001
292.67	-0.001
292.78	-0.000
292.89	-0.001
293.00	-0.001
293.11	-0.001
293.22	-0.002
293.33	-0.001
293.44	-0.001
293.55	-0.000
293.66	-0.001
293.77	-0.000
293.88	0.000
293.99	-0.002
294.10	-0.000
294.21	-0.001
294.32	-0.001
294.43	0.001
294.54	-0.001
294.64	0.000
294.75	-0.002
294.86	-0.001
294.97	-0.003
295.08	-0.002
295.19	-0.002
295.30	-0.003
295.41	-0.003
295.52	-0.002
295.63	-0.003
295.74	-0.003
295.85	-0.003
295.96	-0.003
296.07	-0.002
296.18	-0.002
296.29	-0.002
296.40	-0.003
296.51	-0.001
296.62	-0.001
296.73	0.000
296.84	-0.002
296.95	-0.002
297.06	-0.001
297.17	-0.002
297.27	-0.001
297.38	-0.002
297.49	-0.000
297.60	-0.001
297.71	-0.001
297.82	-0.000
297.93	-0.002
298.04	-0.000
298.15	-0.002
298.26	-0.001
298.37	0.000
298.48	-0.001
298.59	-0.004
298.70	-0.000
298.81	-0.002
298.92	-0.001
299.03	0.000
299.13	-0.001
299.24	-0.002
299.35	-0.002
299.46	-0.002
299.57	-0.001
299.68	0.000
299.79	-0.001
299.90	-0.002
300.01	-0.002
300.12	-0.001
300.23	-0.001
300.34	-0.000
300.45	-0.001
300.56	-0.002
300.66	-0.000
300.77	-0.001
300.88	0.001
300.99	-0.000
301.10	-0.001
301.21	-0.001
301.32	-0.001
301.43	-0.000
301.54	-0.002
301.65	-0.002
301.76	-0.000
301.87	-0.001
301.97	-0.000
302.08	-0.002
302.19	-0.001
302.30	-0.002
302.41	-0.001
302.52	-0.002
302.63	-0.000
302.74	-0.003
302.85	-0.001
302.96	-0.000
303.06	-0.002
303.17	-0.002
303.28	-0.001
303.39	-0.001
303.50	-0.001
303.61	-0.000
303.72	-0.000
303.83	-0.001
303.94	-0.001
304.05	-0.003
304.15	-0.002
304.26	-0.003
304.37	-0.002
304.48	-0.002
304.59	-0.001
304.70	-0.001
304.81	-0.002
304.92	-0.001
305.03	-0.003
305.13	-0.000
305.24	0.000
305.35	-0.000
305.46	-0.001
305.57	-0.003
305.68	-0.002
305.79	-0.001
305.90	-0.003
306.01	-0.002
306.11	-0.001
306.22	-0.001
306.33	-0.001
306.44	0.001
306.55	-0.001
306.66	0.000
306.77	-0.001
306.88	-0.001
306.98	-0.001
307.09	-0.000
307.20	-0.001
307.31	-0.001
307.42	-0.001
307.53	-0.000
307.64	-0.001
307.74	0.000
307.85	-0.000
307.96	-0.000
308.07	-0.001
308.18	-0.001
308.29	-0.000
308.40	-0.000
308.50	0.001
308.61	0.000
308.72	-0.001
308.83	-0.001
308.94	-0.001
309.05	0.001
309.16	-0.001
309.26	-0.000
309.37	0.000
309.48	-0.001
309.59	0.001
309.70	-0.001
309.81	-0.001
309.92	0.000
310.02	-0.000
310.13	-0.000
310.24	-0.002
310.35	0.000
310.46	-0.002
310.57	-0.002
310.68	-0.001
310.78	-0.000
310.89	-0.000
311.00	-0.002
311.11	-0.001
311.22	-0.002
311.33	-0.004
311.43	-0.000
311.54	0.000
311.65	-0.002
311.76	-0.000
311.87	-0.003
311.98	-0.001
312.08	-0.002
312.19	-0.003
312.30	-0.001
312.41	-0.001
312.52	-0.000
312.63	0.001
312.73	-0.001
312.84	-0.002
312.95	0.000
313.06	-0.001
313.17	0.001
313.27	-0.001
313.38	0.002
313.49	-0.001
313.60	-0.001
313.71	0.001
313.82	0.001
313.92	-0.002
314.03	-0.000
314.14	0.001
314.25	-0.001
314.36	-0.001
314.46	0.001
314.57	-0.000
314.68	0.001
314.79	0.001
314.90	-0.001
315.00	0.002
315.11	-0.002
315.22	0.001
315.33	0.001
315.44	0.002
315.55	-0.000
315.65	-0.000
315.76	-0.000
315.87	-0.000
315.98	0.001
316.09	-0.001
316.19	-0.000
316.30	-0.001
316.41	0.001
316.52	0.001
316.63	0.001
316.73	0.003
316.84	0.002
316.95	0.001
317.06	0.002
317.16	0.000
317.27	0.005
317.38	0.002
317.49	0.003
317.60	0.002
317.70	0.002
317.81	0.001
317.92	-0.000
318.03	-0.001
318.14	-0.000
318.24	-0.001
318.35	0.000
318.46	0.000
318.57	0.000
318.67	-0.002
318.78	-0.001
318.89	-0.001
319.00	-0.001
319.11	-0.002
319.21	-0.002
319.32	-0.001
319.43	-0.002
319.54	-0.000
319.64	-0.000
319.75	-0.003
319.86	0.000
319.97	-0.001
320.08	-0.000
320.18	-0.004
320.29	-0.001
320.40	0.000
320.51	-0.001
320.61	0.000
320.72	-0.001
320.83	-0.002
320.94	-0.002
321.04	-0.001
321.15	-0.001
321.26	0.001
321.37	-0.002
321.47	-0.000
321.58	-0.002
321.69	0.000
321.80	0.000
321.90	-0.000
322.01	0.001
322.12	0.000
322.23	-0.000
322.33	-0.001
322.44	0.001
322.55	0.001
322.66	-0.000
322.76	-0.001
322.87	-0.001
322.98	-0.000
323.09	-0.002
323.19	-0.001
323.30	-0.002
323.41	-0.001
323.52	-0.003
323.62	-0.002
323.73	-0.004
323.84	-0.004
323.95	-0.003
324.05	-0.003
324.16	-0.004
324.27	-0.004
324.38	-0.001
324.48	-0.002
324.59	-0.003
324.70	-0.003
324.80	-0.004
324.91	-0.001
325.02	-0.000
325.13	-0.002
325.23	-0.002
325.34	-0.001
325.45	-0.002
325.56	-0.001
325.66	-0.002
325.77	-0.001
325.88	0.001
325.98	-0.001
326.09	-0.001
326.20	0.000
326.31	-0.003
326.41	-0.001
326.52	-0.000
326.63	-0.000
326.73	-0.002
326.84	-0.001
326.95	0.001
327.06	-0.002
327.16	-0.002
327.27	-0.000
327.38	-0.002
327.48	0.000
327.59	-0.002
327.70	-0.001
327.81	-0.001
327.91	-0.001
328.02	-0.001
328.13	0.000
328.23	-0.000
328.34	-0.000
328.45	-0.000
328.55	-0.000
328.66	-0.001
328.77	-0.001
328.88	0.001
328.98	0.000
329.09	-0.000
329.20	0.002
329.30	0.001
329.41	-0.001
329.52	0.001
329.62	-0.002
329.73	0.001
329.84	0.000
329.94	-0.000
330.05	-0.003
330.16	-0.001
330.27	-0.001
330.37	-0.002
330.48	-0.001
330.59	-0.001
330.69	-0.003
330.80	-0.002
330.91	-0.002
331.01	-0.000
331.12	-0.003
331.23	-0.001
331.33	-0.001
331.44	0.000
331.55	-0.001
331.65	-0.002
331.76	-0.001
331.87	-0.001
331.97	-0.002
332.08	-0.002
332.19	-0.001
332.29	-0.001
332.40	-0.003
332.51	-0.000
332.61	-0.001
332.72	-0.001
332.83	-0.002
332.93	-0.001
333.04	-0.002
333.15	0.000
333.25	-0.001
333.36	-0.001
333.47	0.000
333.57	-0.002
333.68	0.001
333.79	-0.000
333.89	-0.003
334.00	-0.002
334.11	-0.003
334.21	-0.001
334.32	-0.003
334.43	-0.003
334.53	-0.003
334.64	-0.003
334.75	-0.003
334.85	-0.004
334.96	-0.001
335.07	-0.001
335.17	0.000
335.28	-0.001
335.38	-0.001
335.49	-0.003
335.60	-0.002
335.70	-0.001
335.81	-0.001
335.92	-0.002
336.02	0.000
336.13	-0.002
336.24	-0.002
336.34	-0.003
336.45	-0.002
336.55	-0.003
336.66	-0.004
336.77	-0.000
336.87	-0.002
336.98	-0.004
337.09	-0.001
337.19	-0.004
337.30	-0.001
337.41	-0.003
337.51	-0.002
337.62	-0.000
337.72	-0.002
337.83	-0.003
337.94	-0.000
338.04	-0.001
338.15	-0.002
338.26	-0.001
338.36	-0.002
338.47	0.001
338.57	0.002
338.68	-0.001
338.79	-0.003
338.89	-0.001
339.00	-0.001
339.10	-0.002
339.21	-0.004
339.32	-0.000
339.42	-0.002
339.53	-0.001
339.64	-0.003
339.74	-0.001
339.85	0.000
339.95	-0.003
340.06	-0.002
340.17	-0.004
340.27	-0.000
340.38	-0.002
340.48	-0.001
340.59	-0.002
340.70	-0.004
340.80	0.000
340.91	-0.001
341.01	-0.002
341.12	-0.002
341.23	-0.004
341.33	-0.004
341.44	-0.003
341.54	-0.003
341.65	-0.005
341.76	-0.002
341.86	-0.003
341.97	-0.001
342.07	-0.003
342.18	-0.003
342.29	-0.005
342.39	0.001
342.50	-0.002
342.60	-0.002
342.71	-0.004
342.81	-0.004
342.92	-0.000
343.03	-0.001
343.13	-0.002
343.24	-0.000
343.34	0.001
343.45	-0.002
343.56	-0.004
343.66	0.001
343.77	-0.002
343.87	-0.000
343.98	-0.001
344.08	-0.003
344.19	-0.000
344.30	-0.002
344.40	-0.001
344.51	0.000
344.61	-0.001
344.72	-0.001
344.82	-0.002
344.93	-0.000
345.04	-0.001
345.14	-0.002
345.25	-0.002
345.35	-0.001
345.46	-0.002
345.56	-0.001
345.67	-0.000
345.77	-0.006
345.88	-0.002
345.99	-0.002
346.09	-0.005
346.20	-0.002
346.30	-0.001
346.41	-0.004
346.51	-0.004
346.62	-0.001
346.72	-0.002
346.83	-0.001
346.94	-0.005
347.04	-0.002
347.15	-0.002
347.25	-0.006
347.36	-0.002
347.46	-0.002
347.57	-0.003
347.67	-0.004
347.78	-0.004
347.89	-0.002
347.99	-0.005
348.10	-0.000
348.20	-0.002
348.31	-0.001
348.41	-0.002
348.52	-0.003
348.62	-0.001
348.73	0.002
348.83	-0.001
348.94	-0.001
349.04	-0.001
349.15	-0.002
349.26	-0.002
349.36	-0.002
349.47	-0.002
349.57	-0.001
349.68	-0.002
349.78	-0.002
349.89	-0.003
349.99	-0.002
350.10	-0.001
350.20	-0.002
350.31	-0.002
350.41	-0.000
350.52	-0.001
350.62	-0.003
350.73	0.001
350.83	-0.000
350.94	-0.002
351.04	-0.001
351.15	-0.003
351.25	-0.003
351.36	-0.003
351.46	-0.002
351.57	-0.002
351.68	-0.001
351.78	-0.002
351.89	0.001
351.99	-0.002
352.10	-0.000
352.20	-0.002
352.31	-0.002
352.41	-0.001
352.52	0.002
352.62	-0.002
352.73	-0.001
352.83	-0.002
352.94	-0.002
353.04	-0.000
353.15	0.000
353.25	-0.003
353.36	0.001
353.46	0.001
353.57	0.000
353.67	-0.002
353.78	0.002
353.88	-0.002
353.99	-0.001
354.09	-0.003
354.20	-0.000
354.30	-0.001
354.41	-0.002
354.51	-0.001
354.62	-0.000
354.72	0.000
354.83	0.000
354.93	-0.002
355.03	-0.003
355.14	-0.002
355.24	-0.001
355.35	-0.002
355.45	-0.004
355.56	-0.003
355.66	-0.000
355.77	-0.004
355.87	-0.003
355.98	-0.004
356.08	-0.005
356.19	-0.004
356.29	-0.003
356.40	-0.005
356.50	-0.005
356.61	-0.007
356.71	-0.003
356.82	-0.005
356.92	-0.003
357.03	-0.005
357.13	-0.007
357.23	-0.002
357.34	-0.004
357.44	-0.003
357.55	-0.003
357.65	-0.002
357.76	0.001
357.86	0.001
357.97	-0.001
358.07	-0.002
358.18	-0.003
358.28	-0.002
358.39	-0.003
358.49	-0.000
358.59	-0.002
358.70	-0.001
358.80	-0.001
358.91	-0.002
359.01	-0.005
359.12	-0.000
359.22	-0.001
359.33	-0.003
359.43	-0.005
359.54	-0.002
359.64	-0.003
359.74	-0.005
359.85	-0.001
359.95	-0.003
360.06	-0.003
360.16	-0.003
360.27	-0.002
360.37	-0.003
360.48	-0.004
360.58	-0.004
360.68	-0.002
360.79	-0.003
360.89	-0.000
361.00	-0.004
361.10	-0.003
361.21	-0.003
361.31	-0.003
361.41	-0.001
361.52	-0.001
361.62	-0.006
361.73	-0.002
361.83	-0.003
361.94	-0.003
362.04	-0.001
362.14	-0.003
362.25	-0.002
362.35	-0.005
362.46	-0.004
362.56	-0.002
362.67	-0.001
362.77	-0.002
362.87	-0.002
362.98	-0.003
363.08	-0.001
363.19	0.000
363.29	-0.004
363.40	0.001
363.50	-0.001
363.60	-0.002
363.71	-0.002
363.81	-0.003
363.92	-0.001
364.02	-0.002
364.12	-0.005
364.23	-0.002
364.33	-0.003
364.44	0.000
364.54	-0.000
364.64	-0.004
364.75	-0.003
364.85	-0.004
364.96	0.000
365.06	0.000
365.16	-0.001
365.27	-0.005
365.37	-0.003
365.48	-0.002
365.58	-0.005
365.68	-0.001
365.79	-0.002
365.89	-0.002
366.00	-0.004
366.10	-0.002
366.20	-0.003
366.31	-0.001
366.41	-0.001
366.52	-0.002
366.62	-0.003
366.72	0.000
366.83	-0.004
366.93	-0.003
367.04	-0.004
367.14	-0.001
367.24	-0.002
367.35	-0.004
367.45	-0.004
367.55	-0.004
367.66	-0.004
367.76	-0.002
367.87	-0.006
367.97	-0.002
368.07	-0.003
368.18	-0.001
368.28	-0.004
368.39	0.001
368.49	-0.003
368.59	-0.001
368.70	-0.004
368.80	-0.003
368.90	0.000
369.01	-0.000
369.11	-0.001
369.21	-0.004
369.32	-0.001
369.42	-0.001
369.53	-0.004
369.63	-0.004
369.73	-0.002
369.84	-0.001
369.94	-0.001
370.04	-0.002
370.15	-0.004
370.25	-0.002
370.35	-0.001
370.46	-0.001
370.56	-0.001
370.67	-0.000
370.77	-0.002
370.87	-0.003
370.98	-0.003
371.08	-0.002
371.18	-0.005
371.29	-0.004
371.39	-0.001
371.49	-0.001
371.60	-0.003
371.70	-0.002
371.80	-0.002
371.91	-0.002
372.01	-0.001
372.11	-0.004
372.22	-0.006
372.32	-0.002
372.42	-0.003
372.53	0.001
372.63	-0.001
372.74	-0.002
372.84	-0.004
372.94	-0.000
373.05	-0.005
373.15	-0.004
373.25	-0.001
373.36	-0.003
373.46	-0.002
373.56	-0.003
373.67	-0.003
373.77	-0.003
373.87	-0.004
373.98	-0.005
374.08	-0.003
374.18	-0.002
374.29	-0.001
374.39	0.001
374.49	-0.003
374.59	-0.004
374.70	-0.003
374.80	-0.003
374.90	-0.004
375.01	0.000
375.11	-0.003
375.21	-0.003
375.32	-0.001
375.42	-0.001
375.52	-0.001
375.63	-0.003
375.73	-0.001
375.83	-0.002
375.94	-0.003
376.04	-0.004
376.14	-0.001
376.25	-0.005
376.35	-0.004
376.45	-0.005
376.55	-0.003
376.66	-0.004
376.76	-0.001
376.86	-0.002
376.97	-0.003
377.07	-0.003
377.17	0.001
377.28	0.001
377.38	-0.001
377.48	-0.001
377.59	-0.001
377.69	0.004
377.79	0.001
377.89	-0.000
378.00	-0.000
378.10	0.002
378.20	0.003
378.31	0.001
378.41	-0.002
378.51	0.001
378.61	0.001
378.72	-0.000
378.82	-0.000
378.92	-0.000
379.03	-0.000
379.13	-0.003
379.23	0.002
379.33	-0.002
379.44	-0.000
379.54	-0.002
379.64	0.000
379.75	-0.001
379.85	-0.002
379.95	-0.002
380.05	-0.000
380.16	0.001
380.26	-0.003
380.36	-0.001
380.47	-0.001
380.57	-0.002
380.67	0.003
380.77	-0.002
380.88	0.001
380.98	0.001
381.08	-0.003
381.18	0.002
381.29	-0.001
381.39	-0.001
381.49	0.001
381.60	0.001
381.70	0.002
381.80	0.001
381.90	0.001
382.01	-0.000
382.11	0.001
382.21	-0.000
382.31	-0.001
382.42	0.000
382.52	-0.000
382.62	-0.004
382.72	-0.000
382.83	-0.002
382.93	-0.003
383.03	0.002
383.13	0.001
383.24	0.000
383.34	-0.001
383.44	-0.004
383.54	-0.005
383.65	-0.000
383.75	-0.000
383.85	-0.000
383.95	-0.001
384.06	-0.002
384.16	0.000
384.26	-0.003
384.36	-0.001
384.47	-0.001
384.57	-0.005
384.67	-0.002
384.77	-0.002
384.88	0.002
384.98	-0.004
385.08	-0.002
385.18	-0.001
385.28	-0.003
385.39	-0.000
385.49	-0.003
385.59	-0.003
385.69	-0.001
385.80	-0.001
385.90	0.002
386.00	0.003
386.10	0.000
386.21	0.002
386.31	-0.000
386.41	0.002
386.51	-0.000
386.61	-0.001
386.72	0.002
386.82	0.002
386.92	0.002
387.02	0.000
387.13	-0.003
387.23	0.004
387.33	0.002
387.43	-0.000
387.53	0.001
387.64	0.003
387.74	-0.000
387.84	0.001
387.94	0.001
388.05	0.002
388.15	0.003
388.25	0.001
388.35	0.001
388.45	0.002
388.56	-0.003
388.66	-0.004
388.76	-0.002
388.86	0.002
388.96	-0.001
389.07	0.003
389.17	0.004
389.27	-0.000
389.37	0.003
389.47	0.002
389.58	0.001
389.68	-0.000
389.78	-0.003
389.88	-0.002
389.98	-0.003
390.09	-0.000
390.19	0.001
390.29	0.000
390.39	-0.001
390.49	0.002
390.60	-0.002
390.70	0.002
390.80	-0.001
390.90	0.007
391.00	-0.003
391.10	-0.002
391.21	0.000
391.31	0.002
391.41	0.003
391.51	-0.002
391.61	-0.001
391.72	0.001
391.82	-0.003
391.92	0.002
392.02	0.001
392.12	0.002
392.22	0.002
392.33	0.003
392.43	-0.003
392.53	0.001
392.63	0.000
392.73	-0.003
392.83	0.001
392.94	0.002
393.04	-0.001
393.14	-0.001
393.24	0.000
393.34	-0.002
393.45	-0.003
393.55	-0.001
393.65	-0.001
393.75	0.002
393.85	0.002
393.95	0.001
394.05	-0.002
394.16	-0.004
394.26	-0.000
394.36	-0.004
394.46	-0.001
394.56	-0.001
394.66	-0.003
394.77	-0.001
394.87	-0.001
394.97	0.001
395.07	-0.004
395.17	-0.002
395.27	-0.002
395.37	-0.003
395.48	-0.000
395.58	0.003
395.68	-0.003
395.78	-0.000
395.88	-0.001
395.98	-0.004
396.09	-0.003
396.19	0.001
396.29	-0.004
396.39	-0.005
396.49	-0.001
396.59	-0.004
396.69	-0.007
396.80	-0.000
396.90	0.000
397.00	-0.002
397.10	-0.002
397.20	-0.003
397.30	-0.001
397.40	-0.004
397.50	-0.002
397.61	0.001
397.71	-0.005
397.81	-0.006
397.91	-0.004
398.01	-0.005
398.11	-0.005
398.21	-0.006
398.31	-0.004
398.42	-0.000
398.52	-0.003
398.62	0.000
398.72	-0.003
398.82	-0.004
398.92	0.002
399.02	-0.002
399.12	0.001
399.23	-0.004
399.33	-0.001
399.43	-0.002
399.53	0.001
399.63	0.001
399.73	0.001
399.83	0.001
399.93	0.002
400.03	0.003
400.14	0.003
400.24	0.003
400.34	0.005
400.44	0.001
400.54	0.001
400.64	0.007
400.74	0.003
400.84	0.005
400.94	0.003
401.05	0.001
401.15	0.002
401.25	0.003
401.35	0.006
401.45	-0.001
401.55	0.002
401.65	-0.000
401.75	0.003
401.85	0.003
401.95	0.002
402.05	-0.001
402.16	0.002
402.26	0.005
402.36	0.002
402.46	0.001
402.56	-0.001
402.66	0.001
402.76	-0.002
402.86	0.003
402.96	-0.001
403.06	0.001
403.16	0.001
403.27	-0.000
403.37	0.002
403.47	0.000
403.57	0.001
403.67	-0.000
403.77	-0.000
403.87	0.005
403.97	0.000
404.07	-0.000
404.17	0.003
404.27	0.002
404.37	-0.001
404.47	-0.003
404.58	-0.004
404.68	0.003
404.78	0.002
404.88	-0.000
404.98	0.002
405.08	-0.000
405.18	-0.002
405.28	0.000
405.38	-0.002
405.48	-0.006
405.58	-0.000
405.68	-0.007
405.78	-0.004
405.88	-0.002
405.98	-0.004
406.09	-0.001
406.19	-0.006
406.29	-0.002
406.39	-0.005
406.49	-0.004
406.59	-0.002
406.69	-0.003
406.79	-0.005
406.89	-0.005
406.99	0.000
407.09	0.001
407.19	0.001
407.29	0.000
407.39	-0.001
407.49	0.001
407.59	-0.004
407.69	-0.001
407.79	0.000
407.89	0.001
407.99	-0.006
408.10	0.002
408.20	0.006
408.30	-0.001
408.40	0.001
408.50	0.001
408.60	-0.004
408.70	-0.001
408.80	-0.003
408.90	-0.006
409.00	-0.006
409.10	0.001
409.20	-0.006
409.30	-0.003
409.40	-0.006
409.50	-0.003
409.60	-0.001
409.70	-0.002
409.80	-0.005
409.90	-0.002
410.00	-0.004
410.10	-0.001
410.20	-0.006
410.30	-0.001
410.40	-0.003
410.50	-0.008
410.60	-0.015
410.70	-0.005
410.80	-0.004
410.90	-0.008
411.00	-0.011
411.10	-0.008
411.20	-0.008
411.30	-0.003
411.40	-0.002
411.50	-0.009
411.60	-0.010
411.70	-0.002
411.80	-0.002
411.90	-0.004
412.00	-0.004
412.10	-0.007
412.20	-0.007
412.30	-0.005
412.40	-0.008
412.51	-0.003
412.61	-0.013
412.71	-0.007
412.81	-0.014
412.91	-0.008
413.01	-0.008
413.11	-0.009
413.21	-0.017
413.31	-0.012
413.40	-0.010
413.50	-0.013
413.60	-0.021
413.70	-0.006
413.80	-0.022
413.90	-0.019
414.00	-0.007
414.10	-0.034
414.20	-0.030
414.30	-0.017
>>>>>End Processed Spectral Data<<<<<
