SpectraSuite Data File
++++++++++++++++++++++++++++++++++++
Date: Wed Feb 10 18:52:44 CST 2016
User: lahernandez
Dark Spectrum Present: Yes
Reference Spectrum Present: Yes
Number of Sampled Component Spectra: 1
Spectrometers: MAYP112250
Integration Time (usec): 100000 (MAYP112250)
Spectra Averaged: 30 (MAYP112250)
Boxcar Smoothing: 0 (MAYP112250)
Correct for Electrical Dark: No (MAYP112250)
Strobe/Lamp Enabled: No (MAYP112250)
Correct for Detector Non-linearity: Yes (MAYP112250)
Correct for Stray Light: No (MAYP112250)
Number of Pixels in Processed Spectrum: 2068
>>>>>Begin Processed Spectral Data<<<<<
189.52	-0.039
189.64	-0.024
189.76	-0.046
189.87	-0.047
189.99	0.109
190.11	0.485
190.23	0.972
190.34	1.128
190.46	1.153
190.58	1.170
190.70	1.192
190.81	1.203
190.93	1.210
191.05	1.229
191.17	1.206
191.28	1.229
191.40	1.239
191.52	1.209
191.64	1.241
191.75	1.222
191.87	1.234
191.99	1.227
192.11	1.219
192.22	1.232
192.34	1.244
192.46	1.272
192.58	1.230
192.69	1.313
192.81	1.304
192.93	1.313
193.04	1.315
193.16	1.307
193.28	1.310
193.40	1.337
193.51	1.303
193.63	1.325
193.75	1.328
193.87	1.324
193.98	1.342
194.10	1.329
194.22	1.331
194.34	1.331
194.45	1.328
194.57	1.316
194.69	1.342
194.80	1.364
194.92	1.363
195.04	1.372
195.16	1.322
195.27	1.375
195.39	1.379
195.51	1.367
195.62	1.377
195.74	1.373
195.86	1.390
195.98	1.376
196.09	1.387
196.21	1.404
196.33	1.396
196.44	1.403
196.56	1.397
196.68	1.397
196.80	1.398
196.91	1.397
197.03	1.401
197.15	1.414
197.26	1.410
197.38	1.386
197.50	1.405
197.62	1.412
197.73	1.428
197.85	1.429
197.97	1.417
198.08	1.422
198.20	1.422
198.32	1.408
198.43	1.428
198.55	1.424
198.67	1.440
198.79	1.445
198.90	1.445
199.02	1.445
199.14	1.444
199.25	1.447
199.37	1.448
199.49	1.421
199.60	1.439
199.72	1.470
199.84	1.451
199.95	1.461
200.07	1.468
200.19	1.474
200.30	1.473
200.42	1.473
200.54	1.473
200.65	1.463
200.77	1.460
200.89	1.473
201.01	1.478
201.12	1.473
201.24	1.489
201.36	1.481
201.47	1.487
201.59	1.477
201.71	1.480
201.82	1.513
201.94	1.473
202.06	1.500
202.17	1.503
202.29	1.505
202.41	1.500
202.52	1.510
202.64	1.496
202.76	1.513
202.87	1.492
202.99	1.505
203.11	1.521
203.22	1.518
203.34	1.518
203.46	1.501
203.57	1.525
203.69	1.510
203.81	1.526
203.92	1.526
204.04	1.489
204.16	1.525
204.27	1.522
204.39	1.546
204.50	1.541
204.62	1.542
204.74	1.532
204.85	1.526
204.97	1.510
205.09	1.535
205.20	1.521
205.32	1.526
205.44	1.552
205.55	1.544
205.67	1.554
205.79	1.558
205.90	1.529
206.02	1.547
206.14	1.552
206.25	1.555
206.37	1.561
206.48	1.551
206.60	1.546
206.72	1.553
206.83	1.563
206.95	1.548
207.07	1.543
207.18	1.560
207.30	1.554
207.42	1.573
207.53	1.566
207.65	1.567
207.76	1.581
207.88	1.558
208.00	1.541
208.11	1.553
208.23	1.544
208.35	1.562
208.46	1.555
208.58	1.540
208.69	1.556
208.81	1.563
208.93	1.572
209.04	1.559
209.16	1.539
209.27	1.554
209.39	1.556
209.51	1.550
209.62	1.554
209.74	1.527
209.86	1.553
209.97	1.547
210.09	1.556
210.20	1.548
210.32	1.537
210.44	1.542
210.55	1.556
210.67	1.527
210.78	1.537
210.90	1.526
211.02	1.523
211.13	1.531
211.25	1.512
211.36	1.528
211.48	1.508
211.60	1.525
211.71	1.504
211.83	1.482
211.94	1.500
212.06	1.493
212.18	1.493
212.29	1.478
212.41	1.474
212.52	1.482
212.64	1.477
212.76	1.468
212.87	1.459
212.99	1.443
213.10	1.436
213.22	1.444
213.34	1.439
213.45	1.433
213.57	1.420
213.68	1.425
213.80	1.416
213.91	1.406
214.03	1.410
214.15	1.384
214.26	1.382
214.38	1.383
214.49	1.373
214.61	1.372
214.73	1.356
214.84	1.344
214.96	1.343
215.07	1.339
215.19	1.325
215.30	1.310
215.42	1.313
215.54	1.307
215.65	1.289
215.77	1.284
215.88	1.278
216.00	1.261
216.11	1.249
216.23	1.245
216.34	1.231
216.46	1.227
216.58	1.212
216.69	1.204
216.81	1.192
216.92	1.186
217.04	1.179
217.15	1.158
217.27	1.148
217.39	1.147
217.50	1.133
217.62	1.124
217.73	1.115
217.85	1.105
217.96	1.091
218.08	1.077
218.19	1.074
218.31	1.060
218.43	1.050
218.54	1.037
218.66	1.028
218.77	1.014
218.89	0.999
219.00	0.988
219.12	0.985
219.23	0.974
219.35	0.958
219.46	0.946
219.58	0.933
219.70	0.924
219.81	0.917
219.93	0.901
220.04	0.894
220.16	0.882
220.27	0.873
220.39	0.861
220.50	0.847
220.62	0.839
220.73	0.827
220.85	0.813
220.96	0.804
221.08	0.789
221.19	0.786
221.31	0.772
221.42	0.765
221.54	0.755
221.66	0.742
221.77	0.730
221.89	0.721
222.00	0.710
222.12	0.698
222.23	0.688
222.35	0.680
222.46	0.668
222.58	0.661
222.69	0.651
222.81	0.640
222.92	0.629
223.04	0.622
223.15	0.612
223.27	0.603
223.38	0.593
223.50	0.583
223.61	0.571
223.73	0.566
223.84	0.555
223.96	0.547
224.07	0.535
224.19	0.530
224.30	0.519
224.42	0.513
224.53	0.504
224.65	0.494
224.76	0.487
224.88	0.478
224.99	0.471
225.11	0.462
225.22	0.453
225.34	0.445
225.45	0.439
225.57	0.429
225.68	0.422
225.80	0.413
225.91	0.404
226.03	0.399
226.14	0.392
226.26	0.385
226.37	0.378
226.49	0.369
226.60	0.364
226.72	0.357
226.83	0.351
226.95	0.343
227.06	0.337
227.18	0.332
227.29	0.327
227.41	0.317
227.52	0.313
227.64	0.308
227.75	0.303
227.87	0.295
227.98	0.289
228.10	0.284
228.21	0.277
228.33	0.274
228.44	0.269
228.55	0.263
228.67	0.258
228.78	0.254
228.90	0.248
229.01	0.242
229.13	0.237
229.24	0.232
229.36	0.229
229.47	0.223
229.59	0.218
229.70	0.214
229.82	0.209
229.93	0.205
230.05	0.202
230.16	0.195
230.28	0.192
230.39	0.189
230.50	0.184
230.62	0.181
230.73	0.176
230.85	0.174
230.96	0.169
231.08	0.165
231.19	0.162
231.31	0.159
231.42	0.155
231.54	0.152
231.65	0.148
231.76	0.145
231.88	0.141
231.99	0.138
232.11	0.135
232.22	0.132
232.34	0.129
232.45	0.126
232.57	0.124
232.68	0.122
232.79	0.120
232.91	0.115
233.02	0.113
233.14	0.110
233.25	0.108
233.37	0.106
233.48	0.102
233.59	0.099
233.71	0.097
233.82	0.094
233.94	0.092
234.05	0.090
234.17	0.088
234.28	0.086
234.40	0.086
234.51	0.081
234.62	0.081
234.74	0.078
234.85	0.076
234.97	0.074
235.08	0.072
235.20	0.070
235.31	0.069
235.42	0.067
235.54	0.068
235.65	0.064
235.77	0.065
235.88	0.062
235.99	0.061
236.11	0.059
236.22	0.057
236.34	0.058
236.45	0.053
236.57	0.055
236.68	0.052
236.79	0.051
236.91	0.051
237.02	0.048
237.14	0.047
237.25	0.048
237.36	0.045
237.48	0.043
237.59	0.043
237.71	0.041
237.82	0.040
237.93	0.039
238.05	0.039
238.16	0.038
238.28	0.037
238.39	0.036
238.50	0.036
238.62	0.034
238.73	0.034
238.85	0.032
238.96	0.031
239.07	0.031
239.19	0.028
239.30	0.029
239.42	0.027
239.53	0.026
239.64	0.026
239.76	0.024
239.87	0.024
239.99	0.023
240.10	0.023
240.21	0.022
240.33	0.021
240.44	0.021
240.55	0.020
240.67	0.021
240.78	0.020
240.90	0.020
241.01	0.019
241.12	0.018
241.24	0.018
241.35	0.018
241.47	0.018
241.58	0.018
241.69	0.018
241.81	0.017
241.92	0.016
242.03	0.015
242.15	0.014
242.26	0.014
242.37	0.014
242.49	0.012
242.60	0.014
242.72	0.011
242.83	0.013
242.94	0.011
243.06	0.011
243.17	0.010
243.28	0.009
243.40	0.011
243.51	0.010
243.63	0.008
243.74	0.009
243.85	0.008
243.97	0.008
244.08	0.008
244.19	0.008
244.31	0.008
244.42	0.008
244.53	0.009
244.65	0.007
244.76	0.008
244.87	0.009
244.99	0.008
245.10	0.008
245.21	0.006
245.33	0.006
245.44	0.005
245.56	0.004
245.67	0.004
245.78	0.004
245.90	0.005
246.01	0.004
246.12	0.006
246.24	0.005
246.35	0.005
246.46	0.004
246.58	0.004
246.69	0.003
246.80	0.005
246.92	0.004
247.03	0.004
247.14	0.003
247.26	0.003
247.37	0.003
247.48	0.003
247.60	0.003
247.71	0.003
247.82	0.004
247.94	0.002
248.05	0.003
248.16	0.004
248.28	0.003
248.39	0.001
248.50	0.001
248.62	0.002
248.73	0.001
248.84	0.001
248.95	0.001
249.07	0.003
249.18	0.002
249.29	-0.001
249.41	-0.000
249.52	0.000
249.63	0.000
249.75	0.000
249.86	-0.002
249.97	0.001
250.09	0.001
250.20	0.002
250.31	0.001
250.43	0.002
250.54	-0.000
250.65	0.000
250.76	0.000
250.88	0.001
250.99	0.001
251.10	0.001
251.22	0.000
251.33	-0.000
251.44	0.002
251.56	0.002
251.67	0.001
251.78	-0.000
251.90	0.000
252.01	-0.001
252.12	-0.001
252.23	-0.000
252.35	0.001
252.46	0.000
252.57	0.001
252.69	-0.001
252.80	-0.000
252.91	-0.001
253.02	0.001
253.14	-0.000
253.25	0.000
253.36	-0.001
253.48	-0.001
253.59	-0.001
253.70	-0.001
253.81	-0.000
253.93	-0.001
254.04	0.001
254.15	0.000
254.27	-0.000
254.38	0.000
254.49	-0.001
254.60	-0.000
254.72	0.000
254.83	-0.001
254.94	0.001
255.06	0.001
255.17	0.000
255.28	0.000
255.39	-0.002
255.51	-0.001
255.62	-0.001
255.73	-0.003
255.84	-0.002
255.96	-0.002
256.07	-0.004
256.18	-0.004
256.29	-0.004
256.41	-0.002
256.52	-0.004
256.63	-0.003
256.75	-0.003
256.86	-0.003
256.97	-0.003
257.08	-0.003
257.20	-0.001
257.31	-0.001
257.42	-0.001
257.53	-0.002
257.65	-0.002
257.76	-0.000
257.87	-0.002
257.98	-0.002
258.10	-0.001
258.21	-0.002
258.32	-0.001
258.43	-0.002
258.55	-0.000
258.66	-0.001
258.77	-0.002
258.88	-0.000
259.00	-0.001
259.11	-0.003
259.22	-0.002
259.33	-0.001
259.45	-0.002
259.56	-0.000
259.67	0.001
259.78	-0.002
259.89	-0.001
260.01	-0.002
260.12	-0.002
260.23	-0.002
260.34	-0.001
260.46	-0.002
260.57	-0.004
260.68	-0.002
260.79	-0.003
260.91	-0.003
261.02	-0.002
261.13	-0.002
261.24	-0.002
261.35	-0.000
261.47	-0.002
261.58	-0.000
261.69	-0.001
261.80	-0.000
261.92	-0.001
262.03	-0.001
262.14	-0.002
262.25	-0.001
262.36	-0.001
262.48	-0.001
262.59	-0.002
262.70	-0.002
262.81	-0.002
262.93	-0.003
263.04	-0.001
263.15	-0.000
263.26	-0.000
263.37	-0.000
263.49	-0.002
263.60	-0.002
263.71	-0.003
263.82	-0.002
263.93	-0.003
264.05	-0.000
264.16	-0.002
264.27	-0.002
264.38	-0.003
264.49	-0.002
264.61	-0.002
264.72	-0.002
264.83	0.001
264.94	-0.001
265.05	-0.001
265.17	-0.002
265.28	-0.002
265.39	-0.001
265.50	-0.001
265.61	-0.002
265.73	-0.001
265.84	-0.002
265.95	-0.001
266.06	-0.002
266.17	0.000
266.29	-0.000
266.40	-0.001
266.51	0.000
266.62	-0.002
266.73	-0.001
266.84	-0.003
266.96	-0.001
267.07	-0.002
267.18	-0.001
267.29	-0.001
267.40	-0.001
267.52	-0.001
267.63	-0.001
267.74	-0.001
267.85	-0.003
267.96	-0.001
268.07	-0.002
268.19	-0.004
268.30	-0.003
268.41	-0.003
268.52	-0.001
268.63	-0.002
268.74	-0.002
268.86	-0.001
268.97	0.000
269.08	-0.001
269.19	-0.001
269.30	-0.001
269.41	-0.001
269.53	-0.002
269.64	-0.002
269.75	-0.001
269.86	-0.003
269.97	-0.001
270.08	-0.002
270.20	-0.002
270.31	-0.002
270.42	-0.003
270.53	-0.001
270.64	-0.004
270.75	-0.001
270.87	-0.002
270.98	-0.000
271.09	-0.001
271.20	-0.001
271.31	-0.001
271.42	-0.002
271.53	-0.002
271.65	-0.001
271.76	-0.003
271.87	-0.001
271.98	-0.000
272.09	-0.002
272.20	-0.001
272.31	-0.002
272.43	-0.003
272.54	-0.003
272.65	-0.001
272.76	-0.001
272.87	-0.002
272.98	-0.002
273.09	-0.002
273.21	0.000
273.32	-0.002
273.43	-0.002
273.54	-0.000
273.65	-0.000
273.76	-0.003
273.87	-0.003
273.98	-0.004
274.10	-0.001
274.21	-0.001
274.32	-0.002
274.43	-0.003
274.54	-0.002
274.65	-0.002
274.76	-0.002
274.87	-0.003
274.99	-0.002
275.10	-0.003
275.21	-0.002
275.32	-0.002
275.43	-0.002
275.54	-0.003
275.65	-0.001
275.76	-0.002
275.88	-0.003
275.99	-0.002
276.10	-0.000
276.21	-0.002
276.32	-0.003
276.43	-0.001
276.54	-0.001
276.65	-0.003
276.76	-0.003
276.88	-0.002
276.99	-0.002
277.10	-0.000
277.21	-0.002
277.32	-0.003
277.43	-0.002
277.54	-0.002
277.65	-0.001
277.76	-0.001
277.87	-0.003
277.99	-0.001
278.10	-0.002
278.21	-0.002
278.32	0.000
278.43	-0.001
278.54	0.001
278.65	-0.000
278.76	0.001
278.87	-0.003
278.98	-0.001
279.09	-0.004
279.21	0.001
279.32	0.000
279.43	-0.002
279.54	-0.000
279.65	-0.002
279.76	-0.001
279.87	-0.000
279.98	-0.000
280.09	-0.001
280.20	-0.002
280.31	-0.001
280.42	0.001
280.54	-0.001
280.65	-0.000
280.76	0.001
280.87	-0.000
280.98	0.002
281.09	0.001
281.20	0.000
281.31	0.001
281.42	0.001
281.53	0.000
281.64	-0.001
281.75	0.001
281.86	-0.000
281.97	0.001
282.09	0.001
282.20	0.001
282.31	-0.000
282.42	-0.002
282.53	-0.001
282.64	-0.003
282.75	-0.002
282.86	-0.002
282.97	-0.003
283.08	-0.002
283.19	-0.001
283.30	-0.003
283.41	-0.004
283.52	-0.001
283.63	-0.000
283.74	-0.003
283.85	-0.003
283.97	-0.003
284.08	-0.000
284.19	-0.000
284.30	-0.002
284.41	-0.003
284.52	-0.002
284.63	-0.002
284.74	-0.004
284.85	-0.003
284.96	-0.004
285.07	-0.005
285.18	-0.002
285.29	-0.001
285.40	-0.002
285.51	-0.002
285.62	0.000
285.73	0.001
285.84	-0.000
285.95	0.001
286.06	0.000
286.17	0.002
286.28	0.002
286.39	0.001
286.51	0.001
286.62	0.000
286.73	0.001
286.84	-0.001
286.95	0.000
287.06	0.001
287.17	0.000
287.28	0.000
287.39	0.000
287.50	0.000
287.61	0.001
287.72	0.002
287.83	-0.000
287.94	-0.000
288.05	-0.002
288.16	-0.001
288.27	0.000
288.38	0.001
288.49	-0.001
288.60	-0.001
288.71	0.001
288.82	0.000
288.93	0.000
289.04	0.001
289.15	-0.000
289.26	0.000
289.37	-0.000
289.48	-0.001
289.59	-0.001
289.70	-0.000
289.81	0.002
289.92	-0.000
290.03	0.001
290.14	-0.001
290.25	-0.002
290.36	-0.002
290.47	-0.002
290.58	-0.003
290.69	-0.002
290.80	-0.003
290.91	-0.001
291.02	-0.000
291.13	0.000
291.24	-0.001
291.35	-0.001
291.46	-0.001
291.57	-0.001
291.68	0.001
291.79	0.000
291.90	0.000
292.01	-0.001
292.12	-0.002
292.23	-0.002
292.34	-0.001
292.45	0.000
292.56	0.000
292.67	-0.001
292.78	0.000
292.89	-0.001
293.00	0.000
293.11	0.000
293.22	0.001
293.33	0.000
293.44	-0.000
293.55	0.001
293.66	-0.001
293.77	-0.002
293.88	-0.001
293.99	-0.000
294.10	-0.001
294.21	-0.001
294.32	-0.000
294.43	-0.000
294.54	-0.001
294.64	0.001
294.75	0.001
294.86	-0.000
294.97	-0.002
295.08	-0.002
295.19	-0.001
295.30	-0.003
295.41	-0.003
295.52	-0.002
295.63	-0.003
295.74	-0.004
295.85	-0.002
295.96	-0.004
296.07	-0.003
296.18	-0.002
296.29	-0.003
296.40	-0.002
296.51	-0.002
296.62	-0.003
296.73	-0.000
296.84	-0.002
296.95	-0.001
297.06	-0.001
297.17	0.000
297.27	0.000
297.38	0.000
297.49	0.001
297.60	-0.000
297.71	0.001
297.82	0.000
297.93	-0.001
298.04	0.000
298.15	-0.000
298.26	-0.001
298.37	0.001
298.48	0.000
298.59	-0.001
298.70	-0.001
298.81	-0.002
298.92	-0.001
299.03	-0.001
299.13	-0.001
299.24	-0.002
299.35	-0.002
299.46	-0.001
299.57	-0.002
299.68	0.001
299.79	-0.001
299.90	-0.003
300.01	-0.001
300.12	-0.002
300.23	-0.001
300.34	-0.001
300.45	-0.001
300.56	-0.003
300.66	-0.003
300.77	-0.002
300.88	-0.001
300.99	-0.001
301.10	-0.001
301.21	-0.003
301.32	-0.001
301.43	-0.001
301.54	-0.002
301.65	-0.000
301.76	0.001
301.87	0.000
301.97	-0.000
302.08	-0.003
302.19	-0.001
302.30	-0.003
302.41	-0.001
302.52	-0.000
302.63	0.001
302.74	-0.000
302.85	0.000
302.96	0.000
303.06	-0.002
303.17	-0.000
303.28	0.002
303.39	-0.000
303.50	-0.001
303.61	0.003
303.72	0.001
303.83	-0.000
303.94	0.000
304.05	-0.002
304.15	0.000
304.26	-0.002
304.37	-0.002
304.48	-0.001
304.59	-0.001
304.70	-0.000
304.81	-0.003
304.92	-0.002
305.03	-0.002
305.13	0.000
305.24	0.000
305.35	0.001
305.46	-0.001
305.57	-0.001
305.68	-0.001
305.79	-0.000
305.90	-0.002
306.01	-0.000
306.11	0.001
306.22	-0.001
306.33	-0.001
306.44	0.000
306.55	-0.002
306.66	-0.000
306.77	-0.000
306.88	-0.002
306.98	-0.000
307.09	0.000
307.20	-0.001
307.31	-0.001
307.42	-0.001
307.53	-0.001
307.64	-0.001
307.74	0.001
307.85	0.000
307.96	-0.001
308.07	-0.001
308.18	0.001
308.29	-0.000
308.40	0.001
308.50	-0.000
308.61	0.000
308.72	0.001
308.83	-0.001
308.94	-0.001
309.05	-0.001
309.16	-0.000
309.26	0.001
309.37	0.001
309.48	0.001
309.59	0.000
309.70	0.000
309.81	0.001
309.92	0.001
310.02	0.000
310.13	0.001
310.24	-0.001
310.35	0.000
310.46	-0.001
310.57	-0.001
310.68	0.000
310.78	0.000
310.89	0.001
311.00	-0.002
311.11	-0.001
311.22	-0.001
311.33	-0.003
311.43	-0.000
311.54	0.001
311.65	-0.001
311.76	0.001
311.87	-0.002
311.98	-0.001
312.08	0.000
312.19	-0.001
312.30	-0.001
312.41	-0.001
312.52	-0.000
312.63	0.000
312.73	0.000
312.84	-0.001
312.95	-0.001
313.06	-0.001
313.17	-0.001
313.27	-0.001
313.38	-0.000
313.49	0.000
313.60	0.000
313.71	-0.000
313.82	-0.000
313.92	-0.002
314.03	-0.002
314.14	0.000
314.25	-0.003
314.36	-0.001
314.46	-0.000
314.57	-0.001
314.68	0.000
314.79	-0.000
314.90	0.001
315.00	0.002
315.11	0.001
315.22	0.000
315.33	-0.001
315.44	0.001
315.55	0.001
315.65	-0.001
315.76	-0.000
315.87	-0.001
315.98	0.001
316.09	0.002
316.19	0.001
316.30	0.001
316.41	0.001
316.52	0.001
316.63	0.002
316.73	0.004
316.84	0.001
316.95	0.001
317.06	0.003
317.16	-0.000
317.27	0.003
317.38	0.001
317.49	0.002
317.60	0.001
317.70	0.001
317.81	0.001
317.92	-0.000
318.03	0.001
318.14	-0.000
318.24	0.001
318.35	0.001
318.46	0.001
318.57	0.001
318.67	0.000
318.78	-0.001
318.89	-0.000
319.00	-0.001
319.11	0.000
319.21	-0.000
319.32	0.000
319.43	-0.001
319.54	-0.000
319.64	0.000
319.75	-0.002
319.86	0.001
319.97	-0.001
320.08	-0.000
320.18	-0.003
320.29	-0.001
320.40	-0.002
320.51	-0.000
320.61	0.000
320.72	-0.002
320.83	-0.003
320.94	-0.001
321.04	-0.001
321.15	-0.001
321.26	0.000
321.37	-0.002
321.47	-0.002
321.58	-0.001
321.69	-0.001
321.80	0.000
321.90	-0.001
322.01	0.000
322.12	-0.001
322.23	-0.000
322.33	-0.001
322.44	0.000
322.55	-0.000
322.66	-0.001
322.76	0.000
322.87	-0.002
322.98	-0.000
323.09	-0.001
323.19	-0.002
323.30	-0.001
323.41	-0.000
323.52	-0.004
323.62	-0.004
323.73	-0.005
323.84	-0.004
323.95	-0.005
324.05	-0.004
324.16	-0.006
324.27	-0.005
324.38	-0.005
324.48	-0.004
324.59	-0.003
324.70	-0.006
324.80	-0.006
324.91	-0.003
325.02	-0.004
325.13	-0.004
325.23	-0.004
325.34	-0.005
325.45	-0.004
325.56	-0.001
325.66	-0.003
325.77	-0.002
325.88	-0.002
325.98	-0.001
326.09	-0.001
326.20	-0.001
326.31	-0.003
326.41	-0.001
326.52	-0.003
326.63	0.001
326.73	-0.002
326.84	-0.001
326.95	0.001
327.06	-0.001
327.16	-0.003
327.27	-0.002
327.38	-0.003
327.48	-0.001
327.59	-0.003
327.70	0.000
327.81	-0.001
327.91	-0.001
328.02	-0.001
328.13	-0.002
328.23	-0.002
328.34	-0.002
328.45	0.001
328.55	-0.001
328.66	-0.001
328.77	0.001
328.88	0.000
328.98	0.000
329.09	-0.002
329.20	0.003
329.30	0.000
329.41	-0.001
329.52	0.002
329.62	-0.001
329.73	0.001
329.84	-0.000
329.94	0.000
330.05	-0.003
330.16	-0.000
330.27	0.000
330.37	-0.003
330.48	-0.001
330.59	-0.004
330.69	-0.002
330.80	-0.002
330.91	-0.003
331.01	-0.004
331.12	-0.003
331.23	-0.002
331.33	-0.003
331.44	-0.004
331.55	-0.003
331.65	-0.002
331.76	-0.002
331.87	-0.002
331.97	-0.004
332.08	-0.005
332.19	-0.002
332.29	-0.002
332.40	-0.004
332.51	-0.002
332.61	-0.002
332.72	-0.001
332.83	-0.002
332.93	-0.004
333.04	-0.002
333.15	-0.001
333.25	-0.004
333.36	-0.003
333.47	-0.000
333.57	-0.001
333.68	-0.001
333.79	-0.003
333.89	-0.002
334.00	-0.002
334.11	-0.002
334.21	-0.003
334.32	-0.004
334.43	-0.004
334.53	-0.002
334.64	-0.004
334.75	-0.004
334.85	-0.005
334.96	-0.003
335.07	-0.003
335.17	-0.000
335.28	-0.002
335.38	-0.001
335.49	-0.003
335.60	-0.003
335.70	-0.003
335.81	-0.001
335.92	-0.003
336.02	-0.002
336.13	-0.004
336.24	-0.001
336.34	-0.005
336.45	-0.001
336.55	-0.004
336.66	-0.005
336.77	-0.001
336.87	-0.005
336.98	-0.004
337.09	-0.003
337.19	-0.006
337.30	-0.002
337.41	-0.003
337.51	-0.004
337.62	-0.003
337.72	-0.005
337.83	-0.005
337.94	-0.002
338.04	-0.002
338.15	-0.002
338.26	-0.002
338.36	-0.004
338.47	-0.003
338.57	0.000
338.68	-0.003
338.79	-0.002
338.89	-0.003
339.00	-0.000
339.10	-0.003
339.21	-0.003
339.32	-0.001
339.42	-0.004
339.53	-0.002
339.64	-0.003
339.74	-0.004
339.85	-0.005
339.95	-0.006
340.06	-0.004
340.17	-0.007
340.27	-0.005
340.38	-0.005
340.48	-0.005
340.59	-0.007
340.70	-0.008
340.80	-0.004
340.91	-0.004
341.01	-0.005
341.12	-0.005
341.23	-0.005
341.33	-0.007
341.44	-0.004
341.54	-0.005
341.65	-0.005
341.76	-0.004
341.86	-0.005
341.97	-0.003
342.07	-0.003
342.18	-0.004
342.29	-0.003
342.39	-0.001
342.50	-0.002
342.60	-0.001
342.71	-0.004
342.81	-0.003
342.92	-0.001
343.03	-0.001
343.13	-0.003
343.24	-0.001
343.34	0.000
343.45	-0.001
343.56	-0.003
343.66	-0.002
343.77	0.000
343.87	-0.000
343.98	-0.001
344.08	-0.003
344.19	-0.003
344.30	-0.002
344.40	-0.002
344.51	-0.001
344.61	-0.003
344.72	-0.001
344.82	-0.004
344.93	-0.002
345.04	-0.003
345.14	-0.003
345.25	-0.004
345.35	-0.001
345.46	-0.004
345.56	-0.003
345.67	-0.002
345.77	-0.007
345.88	-0.004
345.99	-0.004
346.09	-0.006
346.20	-0.002
346.30	-0.005
346.41	-0.005
346.51	-0.007
346.62	-0.004
346.72	-0.004
346.83	-0.003
346.94	-0.006
347.04	-0.005
347.15	-0.004
347.25	-0.008
347.36	-0.005
347.46	-0.002
347.57	-0.007
347.67	-0.006
347.78	-0.006
347.89	-0.004
347.99	-0.008
348.10	-0.005
348.20	-0.005
348.31	-0.004
348.41	-0.005
348.52	-0.007
348.62	-0.005
348.73	-0.004
348.83	-0.003
348.94	-0.003
349.04	-0.005
349.15	-0.005
349.26	-0.005
349.36	-0.007
349.47	-0.004
349.57	-0.006
349.68	-0.005
349.78	-0.006
349.89	-0.005
349.99	-0.005
350.10	-0.004
350.20	-0.005
350.31	-0.006
350.41	-0.004
350.52	-0.004
350.62	-0.004
350.73	-0.002
350.83	-0.003
350.94	-0.004
351.04	-0.004
351.15	-0.007
351.25	-0.002
351.36	-0.005
351.46	-0.004
351.57	-0.004
351.68	-0.004
351.78	-0.004
351.89	-0.003
351.99	-0.004
352.10	-0.004
352.20	-0.006
352.31	-0.006
352.41	-0.003
352.52	-0.000
352.62	-0.003
352.73	-0.002
352.83	-0.003
352.94	-0.003
353.04	-0.002
353.15	-0.002
353.25	-0.003
353.36	-0.001
353.46	-0.002
353.57	0.001
353.67	-0.002
353.78	-0.002
353.88	-0.006
353.99	-0.004
354.09	-0.003
354.20	-0.003
354.30	-0.003
354.41	-0.003
354.51	0.000
354.62	-0.002
354.72	-0.002
354.83	-0.002
354.93	-0.002
355.03	-0.005
355.14	-0.003
355.24	-0.003
355.35	-0.002
355.45	-0.007
355.56	-0.004
355.66	-0.005
355.77	-0.006
355.87	-0.005
355.98	-0.005
356.08	-0.006
356.19	-0.005
356.29	-0.008
356.40	-0.008
356.50	-0.007
356.61	-0.008
356.71	-0.003
356.82	-0.007
356.92	-0.004
357.03	-0.005
357.13	-0.007
357.23	-0.004
357.34	-0.003
357.44	-0.001
357.55	-0.003
357.65	-0.001
357.76	-0.000
357.86	-0.002
357.97	-0.003
358.07	-0.004
358.18	-0.005
358.28	-0.004
358.39	-0.005
358.49	-0.005
358.59	-0.004
358.70	-0.005
358.80	-0.003
358.91	-0.004
359.01	-0.005
359.12	-0.003
359.22	-0.000
359.33	-0.006
359.43	-0.004
359.54	-0.004
359.64	-0.004
359.74	-0.008
359.85	-0.003
359.95	-0.003
360.06	-0.004
360.16	-0.006
360.27	-0.005
360.37	-0.003
360.48	-0.007
360.58	-0.005
360.68	-0.004
360.79	-0.006
360.89	-0.005
361.00	-0.007
361.10	-0.004
361.21	-0.003
361.31	-0.004
361.41	-0.006
361.52	-0.007
361.62	-0.005
361.73	-0.007
361.83	-0.005
361.94	-0.002
362.04	-0.001
362.14	-0.003
362.25	-0.003
362.35	-0.003
362.46	-0.004
362.56	-0.004
362.67	-0.001
362.77	-0.002
362.87	-0.002
362.98	-0.003
363.08	-0.002
363.19	-0.001
363.29	-0.002
363.40	0.000
363.50	-0.001
363.60	-0.005
363.71	-0.005
363.81	-0.006
363.92	-0.001
364.02	-0.003
364.12	-0.004
364.23	-0.003
364.33	-0.002
364.44	-0.003
364.54	-0.003
364.64	-0.007
364.75	-0.005
364.85	-0.006
364.96	-0.004
365.06	-0.003
365.16	-0.007
365.27	-0.008
365.37	-0.004
365.48	-0.006
365.58	-0.006
365.68	-0.003
365.79	-0.004
365.89	-0.004
366.00	-0.003
366.10	-0.006
366.20	-0.005
366.31	-0.005
366.41	-0.004
366.52	-0.005
366.62	-0.004
366.72	-0.002
366.83	-0.005
366.93	-0.006
367.04	-0.006
367.14	-0.005
367.24	-0.005
367.35	-0.009
367.45	-0.004
367.55	-0.007
367.66	-0.008
367.76	-0.004
367.87	-0.007
367.97	-0.005
368.07	-0.004
368.18	-0.004
368.28	-0.005
368.39	-0.002
368.49	-0.004
368.59	-0.004
368.70	-0.007
368.80	-0.002
368.90	0.000
369.01	-0.005
369.11	-0.002
369.21	-0.003
369.32	-0.004
369.42	-0.004
369.53	-0.010
369.63	-0.007
369.73	-0.005
369.84	-0.003
369.94	-0.003
370.04	-0.004
370.15	-0.005
370.25	-0.004
370.35	-0.003
370.46	-0.002
370.56	-0.002
370.67	-0.002
370.77	-0.004
370.87	-0.005
370.98	-0.004
371.08	-0.001
371.18	-0.004
371.29	-0.007
371.39	-0.004
371.49	-0.004
371.60	-0.004
371.70	-0.004
371.80	-0.002
371.91	-0.004
372.01	-0.003
372.11	-0.007
372.22	-0.004
372.32	-0.005
372.42	-0.007
372.53	-0.003
372.63	-0.003
372.74	-0.003
372.84	-0.006
372.94	-0.004
373.05	-0.006
373.15	-0.004
373.25	-0.002
373.36	-0.007
373.46	-0.003
373.56	-0.003
373.67	-0.006
373.77	-0.004
373.87	-0.009
373.98	-0.006
374.08	-0.005
374.18	-0.005
374.29	-0.002
374.39	-0.003
374.49	-0.004
374.59	-0.007
374.70	-0.006
374.80	-0.004
374.90	-0.006
375.01	-0.005
375.11	-0.004
375.21	-0.003
375.32	-0.003
375.42	-0.002
375.52	-0.001
375.63	-0.006
375.73	-0.002
375.83	-0.005
375.94	-0.005
376.04	-0.005
376.14	-0.003
376.25	-0.003
376.35	-0.007
376.45	-0.004
376.55	-0.005
376.66	-0.006
376.76	-0.002
376.86	-0.003
376.97	-0.008
377.07	-0.005
377.17	-0.000
377.28	-0.001
377.38	-0.002
377.48	-0.005
377.59	-0.003
377.69	0.002
377.79	-0.003
377.89	-0.002
378.00	0.001
378.10	0.001
378.20	-0.001
378.31	-0.001
378.41	-0.001
378.51	-0.003
378.61	-0.002
378.72	-0.005
378.82	0.000
378.92	-0.001
379.03	-0.001
379.13	-0.003
379.23	-0.001
379.33	-0.003
379.44	-0.002
379.54	-0.002
379.64	-0.000
379.75	-0.004
379.85	-0.002
379.95	0.000
380.05	-0.003
380.16	-0.003
380.26	-0.004
380.36	-0.003
380.47	-0.003
380.57	-0.005
380.67	-0.003
380.77	-0.003
380.88	-0.002
380.98	-0.001
381.08	-0.004
381.18	-0.002
381.29	-0.002
381.39	-0.003
381.49	-0.000
381.60	0.000
381.70	-0.000
381.80	0.001
381.90	-0.002
382.01	-0.001
382.11	-0.002
382.21	0.001
382.31	-0.002
382.42	-0.001
382.52	-0.002
382.62	-0.003
382.72	-0.001
382.83	-0.003
382.93	-0.003
383.03	-0.001
383.13	-0.003
383.24	-0.002
383.34	-0.002
383.44	-0.004
383.54	-0.004
383.65	0.000
383.75	-0.004
383.85	-0.002
383.95	-0.000
384.06	0.000
384.16	0.001
384.26	-0.003
384.36	-0.002
384.47	0.000
384.57	-0.004
384.67	-0.004
384.77	-0.001
384.88	0.001
384.98	-0.005
385.08	-0.006
385.18	-0.004
385.28	-0.001
385.39	0.000
385.49	-0.003
385.59	-0.005
385.69	-0.002
385.80	-0.001
385.90	-0.002
386.00	-0.001
386.10	-0.003
386.21	-0.001
386.31	-0.001
386.41	0.000
386.51	-0.000
386.61	-0.002
386.72	0.001
386.82	-0.001
386.92	0.000
387.02	-0.002
387.13	-0.004
387.23	0.001
387.33	-0.001
387.43	-0.002
387.53	0.001
387.64	-0.001
387.74	-0.002
387.84	0.000
387.94	-0.001
388.05	0.001
388.15	0.004
388.25	-0.003
388.35	-0.000
388.45	-0.001
388.56	-0.002
388.66	-0.002
388.76	-0.001
388.86	0.003
388.96	-0.001
389.07	0.002
389.17	0.003
389.27	0.002
389.37	0.001
389.47	0.000
389.58	0.004
389.68	-0.001
389.78	0.002
389.88	-0.001
389.98	0.001
390.09	-0.002
390.19	-0.002
390.29	0.000
390.39	-0.002
390.49	-0.001
390.60	-0.000
390.70	-0.001
390.80	-0.001
390.90	-0.001
391.00	-0.003
391.10	-0.005
391.21	0.002
391.31	-0.002
391.41	0.001
391.51	-0.002
391.61	-0.001
391.72	-0.002
391.82	-0.002
391.92	0.000
392.02	0.002
392.12	0.000
392.22	0.002
392.33	0.003
392.43	-0.006
392.53	-0.001
392.63	-0.001
392.73	-0.001
392.83	-0.003
392.94	0.000
393.04	0.000
393.14	-0.003
393.24	-0.002
393.34	-0.004
393.45	-0.004
393.55	-0.003
393.65	-0.002
393.75	0.000
393.85	-0.003
393.95	0.001
394.05	-0.003
394.16	-0.006
394.26	-0.001
394.36	-0.006
394.46	-0.001
394.56	-0.002
394.66	-0.004
394.77	-0.006
394.87	-0.001
394.97	-0.001
395.07	-0.005
395.17	-0.003
395.27	-0.005
395.37	-0.005
395.48	-0.003
395.58	-0.005
395.68	-0.002
395.78	-0.004
395.88	-0.005
395.98	-0.004
396.09	-0.008
396.19	0.001
396.29	-0.007
396.39	-0.009
396.49	-0.004
396.59	-0.002
396.69	-0.006
396.80	-0.004
396.90	-0.002
397.00	-0.005
397.10	-0.002
397.20	-0.003
397.30	-0.004
397.40	-0.003
397.50	-0.004
397.61	-0.001
397.71	-0.007
397.81	-0.007
397.91	-0.008
398.01	-0.006
398.11	-0.007
398.21	-0.008
398.31	-0.005
398.42	-0.004
398.52	-0.006
398.62	-0.003
398.72	-0.005
398.82	-0.006
398.92	-0.008
399.02	-0.003
399.12	-0.004
399.23	-0.007
399.33	-0.002
399.43	-0.006
399.53	-0.005
399.63	-0.003
399.73	-0.005
399.83	-0.000
399.93	-0.005
400.03	0.001
400.14	0.001
400.24	0.004
400.34	0.006
400.44	0.002
400.54	-0.000
400.64	0.005
400.74	0.002
400.84	0.008
400.94	0.005
401.05	0.005
401.15	0.005
401.25	0.006
401.35	0.002
401.45	0.004
401.55	0.007
401.65	0.003
401.75	0.007
401.85	0.006
401.95	0.002
402.05	0.002
402.16	0.002
402.26	0.005
402.36	0.004
402.46	0.001
402.56	-0.001
402.66	-0.000
402.76	0.001
402.86	0.001
402.96	-0.000
403.06	-0.002
403.16	-0.002
403.27	-0.000
403.37	-0.001
403.47	-0.001
403.57	-0.001
403.67	-0.002
403.77	-0.000
403.87	-0.002
403.97	-0.002
404.07	0.001
404.17	0.001
404.27	0.002
404.37	-0.001
404.47	-0.006
404.58	-0.006
404.68	0.001
404.78	-0.001
404.88	-0.000
404.98	-0.002
405.08	0.000
405.18	-0.002
405.28	-0.001
405.38	-0.005
405.48	-0.006
405.58	0.002
405.68	-0.007
405.78	-0.007
405.88	-0.002
405.98	-0.002
406.09	-0.005
406.19	-0.010
406.29	-0.005
406.39	-0.011
406.49	-0.008
406.59	-0.004
406.69	-0.004
406.79	-0.005
406.89	-0.006
406.99	-0.004
407.09	-0.005
407.19	-0.007
407.29	-0.002
407.39	-0.006
407.49	-0.004
407.59	-0.011
407.69	-0.001
407.79	-0.003
407.89	-0.001
407.99	-0.009
408.10	0.001
408.20	0.004
408.30	0.001
408.40	-0.003
408.50	0.001
408.60	-0.004
408.70	-0.001
408.80	-0.003
408.90	-0.009
409.00	-0.005
409.10	-0.003
409.20	-0.004
409.30	-0.006
409.40	-0.006
409.50	-0.003
409.60	-0.005
409.70	-0.008
409.80	-0.011
409.90	-0.003
410.00	-0.002
410.10	-0.002
410.20	-0.001
410.30	-0.003
410.40	-0.008
410.50	-0.007
410.60	-0.015
410.70	-0.003
410.80	-0.001
410.90	-0.007
411.00	-0.014
411.10	-0.009
411.20	-0.010
411.30	-0.010
411.40	-0.007
411.50	-0.017
411.60	-0.014
411.70	-0.006
411.80	-0.008
411.90	-0.007
412.00	-0.008
412.10	-0.013
412.20	-0.009
412.30	-0.008
412.40	-0.012
412.51	-0.013
412.61	-0.014
412.71	-0.013
412.81	-0.018
412.91	-0.019
413.01	-0.014
413.11	-0.016
413.21	-0.025
413.31	-0.024
413.40	-0.020
413.50	-0.029
413.60	-0.024
413.70	-0.016
413.80	-0.043
413.90	-0.054
414.00	-0.046
414.10	-0.052
414.20	-0.047
414.30	-0.046
>>>>>End Processed Spectral Data<<<<<
