SpectraSuite Data File
++++++++++++++++++++++++++++++++++++
Date: Wed Feb 10 18:50:20 CST 2016
User: lahernandez
Dark Spectrum Present: Yes
Reference Spectrum Present: Yes
Number of Sampled Component Spectra: 1
Spectrometers: MAYP112250
Integration Time (usec): 100000 (MAYP112250)
Spectra Averaged: 30 (MAYP112250)
Boxcar Smoothing: 0 (MAYP112250)
Correct for Electrical Dark: No (MAYP112250)
Strobe/Lamp Enabled: No (MAYP112250)
Correct for Detector Non-linearity: Yes (MAYP112250)
Correct for Stray Light: No (MAYP112250)
Number of Pixels in Processed Spectrum: 2068
>>>>>Begin Processed Spectral Data<<<<<
189.52	-0.034
189.64	-0.041
189.76	-0.049
189.87	-0.028
189.99	0.111
190.11	0.468
190.23	0.916
190.34	1.051
190.46	1.070
190.58	1.083
190.70	1.094
190.81	1.111
190.93	1.116
191.05	1.116
191.17	1.124
191.28	1.131
191.40	1.142
191.52	1.124
191.64	1.153
191.75	1.142
191.87	1.152
191.99	1.136
192.11	1.145
192.22	1.149
192.34	1.150
192.46	1.185
192.58	1.155
192.69	1.210
192.81	1.219
192.93	1.222
193.04	1.225
193.16	1.215
193.28	1.226
193.40	1.250
193.51	1.224
193.63	1.250
193.75	1.235
193.87	1.238
193.98	1.245
194.10	1.241
194.22	1.254
194.34	1.241
194.45	1.251
194.57	1.252
194.69	1.269
194.80	1.266
194.92	1.290
195.04	1.284
195.16	1.246
195.27	1.293
195.39	1.293
195.51	1.285
195.62	1.294
195.74	1.291
195.86	1.304
195.98	1.301
196.09	1.303
196.21	1.312
196.33	1.302
196.44	1.314
196.56	1.310
196.68	1.315
196.80	1.325
196.91	1.316
197.03	1.315
197.15	1.328
197.26	1.328
197.38	1.304
197.50	1.321
197.62	1.326
197.73	1.347
197.85	1.348
197.97	1.336
198.08	1.346
198.20	1.343
198.32	1.324
198.43	1.353
198.55	1.347
198.67	1.350
198.79	1.353
198.90	1.353
199.02	1.345
199.14	1.362
199.25	1.364
199.37	1.374
199.49	1.349
199.60	1.355
199.72	1.374
199.84	1.374
199.95	1.382
200.07	1.372
200.19	1.381
200.30	1.394
200.42	1.402
200.54	1.374
200.65	1.370
200.77	1.377
200.89	1.382
201.01	1.383
201.12	1.394
201.24	1.390
201.36	1.394
201.47	1.398
201.59	1.386
201.71	1.404
201.82	1.410
201.94	1.390
202.06	1.410
202.17	1.412
202.29	1.414
202.41	1.406
202.52	1.415
202.64	1.402
202.76	1.401
202.87	1.395
202.99	1.410
203.11	1.422
203.22	1.415
203.34	1.415
203.46	1.405
203.57	1.418
203.69	1.406
203.81	1.422
203.92	1.418
204.04	1.396
204.16	1.419
204.27	1.412
204.39	1.424
204.50	1.429
204.62	1.429
204.74	1.407
204.85	1.409
204.97	1.405
205.09	1.428
205.20	1.414
205.32	1.408
205.44	1.419
205.55	1.418
205.67	1.428
205.79	1.430
205.90	1.400
206.02	1.420
206.14	1.427
206.25	1.421
206.37	1.431
206.48	1.413
206.60	1.404
206.72	1.404
206.83	1.424
206.95	1.408
207.07	1.409
207.18	1.421
207.30	1.405
207.42	1.415
207.53	1.418
207.65	1.406
207.76	1.414
207.88	1.399
208.00	1.394
208.11	1.393
208.23	1.397
208.35	1.394
208.46	1.384
208.58	1.378
208.69	1.387
208.81	1.385
208.93	1.389
209.04	1.383
209.16	1.366
209.27	1.374
209.39	1.370
209.51	1.359
209.62	1.359
209.74	1.349
209.86	1.360
209.97	1.343
210.09	1.349
210.20	1.344
210.32	1.329
210.44	1.344
210.55	1.339
210.67	1.317
210.78	1.319
210.90	1.308
211.02	1.314
211.13	1.304
211.25	1.294
211.36	1.304
211.48	1.290
211.60	1.289
211.71	1.282
211.83	1.258
211.94	1.258
212.06	1.261
212.18	1.257
212.29	1.245
212.41	1.244
212.52	1.246
212.64	1.228
212.76	1.220
212.87	1.216
212.99	1.201
213.10	1.195
213.22	1.197
213.34	1.184
213.45	1.176
213.57	1.170
213.68	1.167
213.80	1.161
213.91	1.148
214.03	1.151
214.15	1.129
214.26	1.128
214.38	1.118
214.49	1.119
214.61	1.108
214.73	1.099
214.84	1.087
214.96	1.083
215.07	1.073
215.19	1.064
215.30	1.055
215.42	1.047
215.54	1.042
215.65	1.031
215.77	1.021
215.88	1.009
216.00	1.002
216.11	0.994
216.23	0.983
216.34	0.975
216.46	0.964
216.58	0.961
216.69	0.947
216.81	0.939
216.92	0.931
217.04	0.922
217.15	0.906
217.27	0.902
217.39	0.892
217.50	0.882
217.62	0.873
217.73	0.867
217.85	0.856
217.96	0.848
218.08	0.840
218.19	0.830
218.31	0.824
218.43	0.811
218.54	0.801
218.66	0.794
218.77	0.786
218.89	0.774
219.00	0.764
219.12	0.759
219.23	0.748
219.35	0.739
219.46	0.723
219.58	0.722
219.70	0.710
219.81	0.705
219.93	0.692
220.04	0.688
220.16	0.675
220.27	0.668
220.39	0.660
220.50	0.649
220.62	0.642
220.73	0.634
220.85	0.623
220.96	0.615
221.08	0.605
221.19	0.597
221.31	0.591
221.42	0.582
221.54	0.573
221.66	0.563
221.77	0.556
221.89	0.549
222.00	0.540
222.12	0.532
222.23	0.523
222.35	0.515
222.46	0.506
222.58	0.499
222.69	0.494
222.81	0.486
222.92	0.478
223.04	0.473
223.15	0.465
223.27	0.458
223.38	0.448
223.50	0.441
223.61	0.435
223.73	0.429
223.84	0.421
223.96	0.413
224.07	0.406
224.19	0.401
224.30	0.393
224.42	0.388
224.53	0.383
224.65	0.377
224.76	0.370
224.88	0.363
224.99	0.356
225.11	0.350
225.22	0.344
225.34	0.336
225.45	0.331
225.57	0.324
225.68	0.318
225.80	0.312
225.91	0.307
226.03	0.301
226.14	0.297
226.26	0.290
226.37	0.285
226.49	0.280
226.60	0.274
226.72	0.269
226.83	0.266
226.95	0.259
227.06	0.255
227.18	0.251
227.29	0.247
227.41	0.241
227.52	0.237
227.64	0.231
227.75	0.229
227.87	0.223
227.98	0.217
228.10	0.215
228.21	0.210
228.33	0.208
228.44	0.203
228.55	0.199
228.67	0.194
228.78	0.191
228.90	0.186
229.01	0.183
229.13	0.180
229.24	0.175
229.36	0.173
229.47	0.169
229.59	0.165
229.70	0.161
229.82	0.157
229.93	0.154
230.05	0.152
230.16	0.148
230.28	0.145
230.39	0.142
230.50	0.139
230.62	0.137
230.73	0.133
230.85	0.131
230.96	0.129
231.08	0.125
231.19	0.125
231.31	0.120
231.42	0.118
231.54	0.114
231.65	0.113
231.76	0.110
231.88	0.106
231.99	0.103
232.11	0.103
232.22	0.099
232.34	0.098
232.45	0.095
232.57	0.093
232.68	0.091
232.79	0.091
232.91	0.088
233.02	0.084
233.14	0.084
233.25	0.081
233.37	0.079
233.48	0.077
233.59	0.074
233.71	0.073
233.82	0.071
233.94	0.070
234.05	0.068
234.17	0.065
234.28	0.064
234.40	0.065
234.51	0.060
234.62	0.061
234.74	0.059
234.85	0.057
234.97	0.057
235.08	0.054
235.20	0.053
235.31	0.052
235.42	0.051
235.54	0.050
235.65	0.049
235.77	0.050
235.88	0.046
235.99	0.046
236.11	0.044
236.22	0.044
236.34	0.043
236.45	0.041
236.57	0.041
236.68	0.040
236.79	0.039
236.91	0.039
237.02	0.036
237.14	0.035
237.25	0.036
237.36	0.033
237.48	0.032
237.59	0.032
237.71	0.031
237.82	0.030
237.93	0.030
238.05	0.030
238.16	0.028
238.28	0.028
238.39	0.027
238.50	0.028
238.62	0.026
238.73	0.026
238.85	0.024
238.96	0.022
239.07	0.023
239.19	0.021
239.30	0.022
239.42	0.019
239.53	0.019
239.64	0.019
239.76	0.018
239.87	0.018
239.99	0.017
240.10	0.016
240.21	0.016
240.33	0.016
240.44	0.016
240.55	0.016
240.67	0.016
240.78	0.014
240.90	0.015
241.01	0.015
241.12	0.014
241.24	0.013
241.35	0.013
241.47	0.014
241.58	0.014
241.69	0.013
241.81	0.014
241.92	0.011
242.03	0.011
242.15	0.010
242.26	0.010
242.37	0.011
242.49	0.009
242.60	0.010
242.72	0.010
242.83	0.009
242.94	0.007
243.06	0.008
243.17	0.008
243.28	0.007
243.40	0.008
243.51	0.007
243.63	0.007
243.74	0.006
243.85	0.007
243.97	0.005
244.08	0.007
244.19	0.005
244.31	0.005
244.42	0.006
244.53	0.006
244.65	0.005
244.76	0.006
244.87	0.006
244.99	0.005
245.10	0.005
245.21	0.005
245.33	0.004
245.44	0.003
245.56	0.003
245.67	0.003
245.78	0.002
245.90	0.003
246.01	0.004
246.12	0.003
246.24	0.003
246.35	0.004
246.46	0.003
246.58	0.003
246.69	0.002
246.80	0.003
246.92	0.002
247.03	0.003
247.14	0.001
247.26	0.002
247.37	0.002
247.48	0.002
247.60	0.002
247.71	0.001
247.82	0.003
247.94	0.002
248.05	0.001
248.16	0.002
248.28	0.002
248.39	-0.001
248.50	-0.001
248.62	0.001
248.73	0.001
248.84	0.000
248.95	0.002
249.07	0.002
249.18	0.001
249.29	0.000
249.41	-0.001
249.52	0.001
249.63	-0.000
249.75	0.001
249.86	-0.002
249.97	-0.000
250.09	-0.000
250.20	0.000
250.31	0.001
250.43	0.000
250.54	0.000
250.65	0.001
250.76	0.001
250.88	-0.000
250.99	0.001
251.10	0.000
251.22	0.001
251.33	0.002
251.44	0.000
251.56	-0.000
251.67	0.001
251.78	-0.000
251.90	-0.000
252.01	-0.001
252.12	-0.002
252.23	-0.001
252.35	-0.001
252.46	-0.000
252.57	0.000
252.69	-0.001
252.80	-0.001
252.91	-0.002
253.02	-0.000
253.14	-0.002
253.25	-0.001
253.36	-0.001
253.48	-0.001
253.59	-0.000
253.70	0.000
253.81	-0.001
253.93	-0.000
254.04	0.000
254.15	0.000
254.27	-0.000
254.38	-0.000
254.49	-0.000
254.60	0.000
254.72	-0.001
254.83	-0.000
254.94	0.000
255.06	0.001
255.17	-0.000
255.28	0.000
255.39	-0.001
255.51	-0.002
255.62	-0.001
255.73	-0.002
255.84	-0.003
255.96	-0.003
256.07	-0.003
256.18	-0.004
256.29	-0.005
256.41	-0.002
256.52	-0.004
256.63	-0.005
256.75	-0.003
256.86	-0.003
256.97	-0.002
257.08	-0.003
257.20	-0.002
257.31	-0.003
257.42	-0.002
257.53	-0.002
257.65	-0.002
257.76	-0.001
257.87	-0.003
257.98	-0.001
258.10	-0.001
258.21	-0.002
258.32	-0.001
258.43	-0.001
258.55	-0.001
258.66	-0.001
258.77	-0.003
258.88	-0.002
259.00	-0.001
259.11	-0.003
259.22	-0.002
259.33	-0.001
259.45	-0.001
259.56	-0.001
259.67	-0.001
259.78	-0.002
259.89	-0.003
260.01	-0.002
260.12	-0.002
260.23	-0.003
260.34	-0.002
260.46	-0.001
260.57	-0.002
260.68	-0.004
260.79	-0.004
260.91	-0.003
261.02	-0.002
261.13	-0.003
261.24	-0.002
261.35	-0.001
261.47	-0.002
261.58	-0.001
261.69	-0.002
261.80	-0.001
261.92	-0.001
262.03	-0.001
262.14	-0.001
262.25	-0.002
262.36	-0.001
262.48	-0.002
262.59	-0.004
262.70	-0.001
262.81	-0.001
262.93	-0.002
263.04	-0.001
263.15	-0.000
263.26	-0.000
263.37	-0.000
263.49	-0.002
263.60	-0.002
263.71	-0.002
263.82	-0.001
263.93	-0.003
264.05	-0.001
264.16	-0.002
264.27	-0.002
264.38	-0.002
264.49	-0.002
264.61	-0.001
264.72	-0.001
264.83	0.000
264.94	-0.003
265.05	-0.001
265.17	-0.001
265.28	-0.001
265.39	-0.002
265.50	-0.001
265.61	-0.002
265.73	-0.000
265.84	-0.001
265.95	-0.001
266.06	-0.002
266.17	-0.000
266.29	-0.000
266.40	-0.001
266.51	-0.002
266.62	-0.002
266.73	-0.002
266.84	-0.002
266.96	-0.001
267.07	-0.003
267.18	-0.001
267.29	-0.001
267.40	-0.000
267.52	-0.000
267.63	-0.001
267.74	-0.002
267.85	-0.002
267.96	-0.002
268.07	-0.002
268.19	-0.003
268.30	-0.004
268.41	-0.003
268.52	-0.003
268.63	-0.000
268.74	-0.002
268.86	-0.001
268.97	0.000
269.08	-0.001
269.19	-0.003
269.30	-0.001
269.41	-0.002
269.53	-0.003
269.64	-0.002
269.75	-0.003
269.86	-0.002
269.97	-0.002
270.08	-0.001
270.20	-0.001
270.31	-0.003
270.42	-0.003
270.53	-0.000
270.64	-0.004
270.75	-0.001
270.87	-0.003
270.98	-0.001
271.09	-0.003
271.20	-0.001
271.31	-0.002
271.42	-0.002
271.53	-0.003
271.65	-0.003
271.76	-0.002
271.87	-0.001
271.98	-0.000
272.09	-0.002
272.20	-0.000
272.31	-0.001
272.43	-0.003
272.54	-0.004
272.65	-0.003
272.76	-0.002
272.87	-0.002
272.98	-0.002
273.09	-0.003
273.21	0.000
273.32	-0.002
273.43	-0.002
273.54	-0.001
273.65	-0.002
273.76	-0.003
273.87	-0.002
273.98	-0.003
274.10	-0.002
274.21	-0.003
274.32	-0.001
274.43	-0.002
274.54	-0.002
274.65	-0.002
274.76	-0.002
274.87	-0.003
274.99	-0.004
275.10	-0.003
275.21	-0.001
275.32	-0.002
275.43	-0.002
275.54	-0.003
275.65	-0.002
275.76	-0.001
275.88	-0.002
275.99	-0.002
276.10	-0.001
276.21	-0.002
276.32	-0.002
276.43	-0.002
276.54	-0.002
276.65	-0.002
276.76	-0.001
276.88	-0.002
276.99	-0.004
277.10	0.000
277.21	-0.003
277.32	-0.002
277.43	-0.002
277.54	-0.001
277.65	-0.001
277.76	-0.002
277.87	-0.002
277.99	-0.001
278.10	-0.001
278.21	-0.001
278.32	0.000
278.43	-0.001
278.54	0.002
278.65	-0.000
278.76	-0.001
278.87	-0.003
278.98	-0.001
279.09	-0.003
279.21	-0.001
279.32	0.000
279.43	-0.000
279.54	-0.000
279.65	-0.000
279.76	-0.001
279.87	-0.000
279.98	-0.001
280.09	0.001
280.20	-0.002
280.31	-0.001
280.42	-0.000
280.54	-0.000
280.65	0.000
280.76	0.001
280.87	-0.000
280.98	0.001
281.09	0.001
281.20	0.001
281.31	0.001
281.42	0.000
281.53	-0.001
281.64	-0.000
281.75	-0.001
281.86	0.001
281.97	0.001
282.09	-0.000
282.20	-0.000
282.31	-0.000
282.42	-0.003
282.53	-0.001
282.64	-0.001
282.75	-0.002
282.86	-0.000
282.97	-0.002
283.08	-0.002
283.19	-0.002
283.30	-0.002
283.41	-0.003
283.52	-0.003
283.63	-0.001
283.74	-0.004
283.85	-0.002
283.97	-0.002
284.08	-0.001
284.19	-0.000
284.30	-0.003
284.41	-0.003
284.52	-0.003
284.63	-0.002
284.74	-0.003
284.85	-0.003
284.96	-0.005
285.07	-0.004
285.18	-0.003
285.29	-0.001
285.40	-0.002
285.51	-0.002
285.62	-0.002
285.73	0.001
285.84	-0.000
285.95	0.001
286.06	0.001
286.17	0.002
286.28	0.002
286.39	0.002
286.51	-0.000
286.62	0.000
286.73	0.001
286.84	-0.002
286.95	-0.001
287.06	0.001
287.17	0.000
287.28	0.000
287.39	0.000
287.50	-0.000
287.61	0.000
287.72	0.000
287.83	-0.002
287.94	-0.002
288.05	-0.001
288.16	0.000
288.27	-0.000
288.38	0.000
288.49	-0.001
288.60	-0.001
288.71	-0.000
288.82	-0.000
288.93	0.000
289.04	0.000
289.15	-0.001
289.26	-0.001
289.37	0.000
289.48	0.001
289.59	-0.001
289.70	-0.000
289.81	0.002
289.92	0.001
290.03	0.002
290.14	-0.002
290.25	-0.002
290.36	-0.002
290.47	-0.000
290.58	-0.004
290.69	-0.000
290.80	-0.001
290.91	-0.003
291.02	-0.001
291.13	-0.000
291.24	-0.000
291.35	-0.001
291.46	-0.001
291.57	-0.001
291.68	-0.000
291.79	-0.001
291.90	0.000
292.01	-0.000
292.12	-0.002
292.23	-0.001
292.34	-0.001
292.45	-0.001
292.56	-0.001
292.67	0.000
292.78	-0.001
292.89	-0.000
293.00	-0.000
293.11	-0.000
293.22	0.000
293.33	0.001
293.44	0.001
293.55	-0.001
293.66	0.001
293.77	-0.002
293.88	-0.002
293.99	-0.002
294.10	-0.001
294.21	-0.002
294.32	-0.002
294.43	0.000
294.54	-0.001
294.64	-0.000
294.75	-0.001
294.86	0.001
294.97	-0.002
295.08	-0.003
295.19	-0.002
295.30	-0.003
295.41	-0.003
295.52	-0.003
295.63	-0.005
295.74	-0.005
295.85	-0.005
295.96	-0.004
296.07	-0.004
296.18	-0.003
296.29	-0.002
296.40	-0.003
296.51	-0.002
296.62	-0.002
296.73	-0.001
296.84	-0.003
296.95	-0.002
297.06	-0.002
297.17	-0.000
297.27	-0.001
297.38	-0.001
297.49	0.001
297.60	0.001
297.71	0.000
297.82	0.000
297.93	-0.000
298.04	-0.000
298.15	-0.001
298.26	-0.003
298.37	0.000
298.48	-0.000
298.59	-0.002
298.70	-0.002
298.81	-0.003
298.92	-0.002
299.03	-0.002
299.13	-0.002
299.24	-0.002
299.35	-0.001
299.46	-0.001
299.57	-0.001
299.68	-0.001
299.79	-0.001
299.90	-0.003
300.01	-0.003
300.12	-0.003
300.23	-0.002
300.34	-0.001
300.45	-0.000
300.56	-0.003
300.66	-0.004
300.77	-0.002
300.88	-0.000
300.99	-0.000
301.10	-0.002
301.21	-0.002
301.32	-0.001
301.43	-0.001
301.54	-0.002
301.65	-0.000
301.76	0.000
301.87	-0.001
301.97	-0.001
302.08	-0.002
302.19	-0.000
302.30	-0.002
302.41	-0.002
302.52	-0.002
302.63	0.001
302.74	-0.001
302.85	-0.001
302.96	-0.000
303.06	0.001
303.17	0.000
303.28	0.001
303.39	-0.001
303.50	-0.000
303.61	0.002
303.72	0.001
303.83	-0.000
303.94	-0.000
304.05	-0.003
304.15	-0.001
304.26	-0.003
304.37	-0.002
304.48	-0.003
304.59	-0.001
304.70	-0.001
304.81	-0.003
304.92	-0.001
305.03	-0.002
305.13	0.000
305.24	0.000
305.35	-0.001
305.46	-0.001
305.57	-0.001
305.68	-0.002
305.79	-0.000
305.90	-0.002
306.01	-0.002
306.11	-0.000
306.22	-0.002
306.33	-0.002
306.44	-0.000
306.55	-0.001
306.66	-0.001
306.77	-0.001
306.88	-0.001
306.98	-0.001
307.09	-0.000
307.20	0.000
307.31	-0.001
307.42	-0.000
307.53	-0.003
307.64	-0.001
307.74	-0.001
307.85	0.000
307.96	-0.001
308.07	-0.001
308.18	-0.001
308.29	0.000
308.40	-0.000
308.50	0.001
308.61	-0.001
308.72	0.001
308.83	-0.002
308.94	0.001
309.05	-0.000
309.16	-0.000
309.26	-0.001
309.37	-0.000
309.48	0.001
309.59	-0.001
309.70	-0.000
309.81	0.001
309.92	-0.000
310.02	-0.000
310.13	0.001
310.24	0.000
310.35	0.001
310.46	-0.001
310.57	-0.001
310.68	0.001
310.78	0.001
310.89	0.001
311.00	0.000
311.11	-0.001
311.22	-0.002
311.33	-0.003
311.43	-0.000
311.54	0.000
311.65	-0.002
311.76	-0.000
311.87	-0.002
311.98	-0.000
312.08	-0.000
312.19	-0.001
312.30	-0.001
312.41	-0.001
312.52	-0.000
312.63	0.002
312.73	-0.000
312.84	-0.000
312.95	-0.000
313.06	-0.001
313.17	-0.001
313.27	0.000
313.38	-0.000
313.49	-0.000
313.60	-0.001
313.71	0.000
313.82	-0.000
313.92	-0.002
314.03	-0.000
314.14	0.000
314.25	0.000
314.36	-0.001
314.46	0.001
314.57	-0.001
314.68	0.000
314.79	0.003
314.90	0.000
315.00	0.001
315.11	-0.001
315.22	-0.001
315.33	-0.001
315.44	0.001
315.55	0.000
315.65	-0.001
315.76	0.000
315.87	-0.000
315.98	0.002
316.09	0.000
316.19	0.000
316.30	-0.000
316.41	0.002
316.52	0.002
316.63	0.004
316.73	0.003
316.84	0.002
316.95	0.001
317.06	0.001
317.16	0.001
317.27	0.002
317.38	0.002
317.49	0.002
317.60	0.000
317.70	-0.000
317.81	0.001
317.92	-0.001
318.03	0.001
318.14	0.001
318.24	-0.000
318.35	0.001
318.46	0.002
318.57	0.001
318.67	-0.001
318.78	-0.001
318.89	0.001
319.00	-0.001
319.11	0.000
319.21	-0.001
319.32	-0.001
319.43	-0.001
319.54	0.001
319.64	0.001
319.75	-0.003
319.86	0.001
319.97	-0.001
320.08	-0.000
320.18	-0.002
320.29	-0.002
320.40	-0.002
320.51	0.001
320.61	-0.000
320.72	-0.002
320.83	-0.002
320.94	-0.000
321.04	-0.003
321.15	-0.002
321.26	-0.001
321.37	-0.003
321.47	-0.002
321.58	-0.002
321.69	-0.002
321.80	-0.000
321.90	-0.002
322.01	0.001
322.12	-0.000
322.23	0.001
322.33	0.000
322.44	-0.001
322.55	0.000
322.66	-0.000
322.76	-0.000
322.87	-0.002
322.98	-0.002
323.09	-0.002
323.19	-0.001
323.30	-0.002
323.41	-0.002
323.52	-0.002
323.62	-0.003
323.73	-0.005
323.84	-0.004
323.95	-0.004
324.05	-0.004
324.16	-0.004
324.27	-0.004
324.38	-0.004
324.48	-0.003
324.59	-0.004
324.70	-0.006
324.80	-0.005
324.91	-0.005
325.02	-0.006
325.13	-0.005
325.23	-0.005
325.34	-0.004
325.45	-0.003
325.56	-0.002
325.66	-0.004
325.77	-0.002
325.88	-0.002
325.98	0.000
326.09	0.000
326.20	-0.001
326.31	-0.002
326.41	-0.001
326.52	-0.001
326.63	-0.001
326.73	-0.002
326.84	-0.002
326.95	0.001
327.06	-0.001
327.16	-0.002
327.27	-0.000
327.38	-0.002
327.48	0.000
327.59	-0.003
327.70	-0.001
327.81	0.001
327.91	0.000
328.02	-0.001
328.13	-0.002
328.23	-0.002
328.34	-0.001
328.45	0.000
328.55	-0.001
328.66	-0.001
328.77	-0.000
328.88	0.001
328.98	0.001
329.09	0.001
329.20	0.002
329.30	0.002
329.41	-0.000
329.52	0.003
329.62	-0.001
329.73	0.001
329.84	-0.000
329.94	-0.000
330.05	-0.002
330.16	0.001
330.27	-0.002
330.37	-0.003
330.48	-0.000
330.59	-0.003
330.69	-0.003
330.80	-0.002
330.91	-0.002
331.01	-0.000
331.12	-0.002
331.23	-0.002
331.33	-0.002
331.44	-0.001
331.55	-0.002
331.65	-0.002
331.76	-0.002
331.87	-0.002
331.97	-0.004
332.08	-0.003
332.19	-0.002
332.29	-0.002
332.40	-0.004
332.51	-0.001
332.61	-0.001
332.72	-0.001
332.83	-0.002
332.93	-0.002
333.04	-0.002
333.15	-0.001
333.25	-0.002
333.36	-0.002
333.47	-0.002
333.57	-0.003
333.68	-0.001
333.79	-0.001
333.89	-0.003
334.00	-0.002
334.11	-0.003
334.21	-0.003
334.32	-0.004
334.43	-0.003
334.53	-0.002
334.64	-0.003
334.75	-0.004
334.85	-0.005
334.96	-0.004
335.07	-0.002
335.17	-0.000
335.28	-0.001
335.38	-0.002
335.49	-0.004
335.60	-0.002
335.70	-0.003
335.81	-0.002
335.92	-0.003
336.02	-0.002
336.13	-0.004
336.24	-0.001
336.34	-0.004
336.45	-0.002
336.55	-0.005
336.66	-0.005
336.77	-0.002
336.87	-0.003
336.98	-0.004
337.09	-0.003
337.19	-0.006
337.30	-0.003
337.41	-0.004
337.51	-0.004
337.62	-0.002
337.72	-0.006
337.83	-0.004
337.94	-0.002
338.04	-0.003
338.15	-0.003
338.26	-0.002
338.36	-0.004
338.47	-0.001
338.57	0.001
338.68	-0.003
338.79	-0.001
338.89	-0.002
339.00	0.000
339.10	-0.001
339.21	-0.004
339.32	-0.002
339.42	-0.002
339.53	-0.004
339.64	-0.005
339.74	-0.004
339.85	-0.003
339.95	-0.005
340.06	-0.006
340.17	-0.005
340.27	-0.004
340.38	-0.005
340.48	-0.004
340.59	-0.005
340.70	-0.006
340.80	-0.003
340.91	-0.005
341.01	-0.003
341.12	-0.004
341.23	-0.007
341.33	-0.006
341.44	-0.004
341.54	-0.004
341.65	-0.007
341.76	-0.004
341.86	-0.004
341.97	-0.001
342.07	-0.004
342.18	-0.003
342.29	-0.002
342.39	-0.003
342.50	-0.003
342.60	-0.002
342.71	-0.004
342.81	-0.003
342.92	-0.001
343.03	-0.000
343.13	-0.004
343.24	-0.000
343.34	-0.001
343.45	-0.001
343.56	-0.002
343.66	-0.001
343.77	0.000
343.87	0.001
343.98	-0.001
344.08	-0.002
344.19	-0.002
344.30	-0.002
344.40	0.000
344.51	-0.001
344.61	-0.002
344.72	0.000
344.82	-0.001
344.93	-0.001
345.04	-0.002
345.14	-0.002
345.25	-0.004
345.35	-0.002
345.46	-0.004
345.56	-0.004
345.67	-0.002
345.77	-0.006
345.88	-0.003
345.99	-0.003
346.09	-0.007
346.20	-0.003
346.30	-0.006
346.41	-0.006
346.51	-0.004
346.62	-0.004
346.72	-0.004
346.83	-0.003
346.94	-0.005
347.04	-0.005
347.15	-0.003
347.25	-0.005
347.36	-0.003
347.46	-0.002
347.57	-0.007
347.67	-0.005
347.78	-0.006
347.89	-0.003
347.99	-0.005
348.10	-0.002
348.20	-0.005
348.31	-0.004
348.41	-0.004
348.52	-0.006
348.62	-0.004
348.73	-0.002
348.83	-0.005
348.94	-0.004
349.04	-0.003
349.15	-0.006
349.26	-0.006
349.36	-0.001
349.47	-0.004
349.57	-0.005
349.68	-0.004
349.78	-0.004
349.89	-0.005
349.99	-0.003
350.10	-0.005
350.20	-0.006
350.31	-0.005
350.41	-0.003
350.52	-0.003
350.62	-0.004
350.73	-0.003
350.83	-0.003
350.94	-0.003
351.04	-0.003
351.15	-0.005
351.25	-0.003
351.36	-0.004
351.46	-0.004
351.57	-0.003
351.68	-0.005
351.78	-0.004
351.89	-0.005
351.99	-0.004
352.10	-0.003
352.20	-0.004
352.31	-0.005
352.41	-0.002
352.52	0.000
352.62	-0.003
352.73	-0.002
352.83	-0.001
352.94	-0.004
353.04	-0.001
353.15	-0.001
353.25	-0.004
353.36	-0.001
353.46	-0.003
353.57	0.001
353.67	-0.002
353.78	-0.001
353.88	-0.003
353.99	-0.003
354.09	-0.004
354.20	-0.003
354.30	-0.004
354.41	-0.004
354.51	-0.001
354.62	-0.001
354.72	-0.002
354.83	-0.001
354.93	-0.005
355.03	-0.004
355.14	-0.005
355.24	-0.003
355.35	-0.003
355.45	-0.005
355.56	-0.004
355.66	-0.005
355.77	-0.006
355.87	-0.005
355.98	-0.006
356.08	-0.006
356.19	-0.006
356.29	-0.005
356.40	-0.010
356.50	-0.005
356.61	-0.008
356.71	-0.003
356.82	-0.007
356.92	-0.003
357.03	-0.004
357.13	-0.007
357.23	-0.005
357.34	-0.005
357.44	-0.004
357.55	0.000
357.65	-0.001
357.76	0.001
357.86	-0.004
357.97	-0.002
358.07	-0.004
358.18	-0.006
358.28	-0.006
358.39	-0.006
358.49	-0.003
358.59	-0.004
358.70	-0.003
358.80	-0.004
358.91	-0.002
359.01	-0.003
359.12	-0.004
359.22	-0.001
359.33	-0.003
359.43	-0.003
359.54	-0.004
359.64	-0.003
359.74	-0.005
359.85	-0.001
359.95	-0.003
360.06	-0.003
360.16	-0.004
360.27	-0.005
360.37	-0.002
360.48	-0.005
360.58	-0.002
360.68	-0.005
360.79	-0.004
360.89	-0.005
361.00	-0.007
361.10	-0.003
361.21	-0.006
361.31	-0.004
361.41	-0.005
361.52	-0.006
361.62	-0.004
361.73	-0.005
361.83	-0.005
361.94	-0.005
362.04	-0.002
362.14	-0.001
362.25	-0.002
362.35	-0.003
362.46	-0.003
362.56	-0.003
362.67	-0.004
362.77	-0.002
362.87	-0.000
362.98	-0.002
363.08	-0.002
363.19	-0.001
363.29	-0.005
363.40	0.001
363.50	-0.003
363.60	-0.004
363.71	-0.002
363.81	-0.004
363.92	-0.002
364.02	-0.004
364.12	-0.004
364.23	-0.003
364.33	-0.004
364.44	-0.002
364.54	-0.004
364.64	-0.006
364.75	-0.006
364.85	-0.004
364.96	-0.003
365.06	-0.004
365.16	-0.004
365.27	-0.008
365.37	-0.005
365.48	-0.003
365.58	-0.005
365.68	-0.004
365.79	-0.001
365.89	-0.004
366.00	-0.004
366.10	-0.007
366.20	-0.002
366.31	-0.004
366.41	-0.003
366.52	-0.005
366.62	-0.006
366.72	-0.002
366.83	-0.004
366.93	-0.006
367.04	-0.005
367.14	-0.004
367.24	-0.004
367.35	-0.006
367.45	-0.004
367.55	-0.008
367.66	-0.008
367.76	-0.004
367.87	-0.008
367.97	-0.006
368.07	-0.004
368.18	-0.004
368.28	-0.008
368.39	-0.003
368.49	-0.006
368.59	-0.003
368.70	-0.003
368.80	-0.003
368.90	-0.000
369.01	-0.003
369.11	-0.002
369.21	-0.003
369.32	-0.003
369.42	-0.004
369.53	-0.007
369.63	-0.004
369.73	-0.006
369.84	-0.003
369.94	-0.004
370.04	-0.004
370.15	-0.004
370.25	-0.004
370.35	-0.006
370.46	-0.003
370.56	-0.004
370.67	-0.002
370.77	-0.003
370.87	-0.002
370.98	-0.005
371.08	-0.004
371.18	-0.005
371.29	-0.004
371.39	-0.003
371.49	-0.003
371.60	-0.006
371.70	-0.005
371.80	-0.003
371.91	-0.006
372.01	-0.004
372.11	-0.003
372.22	-0.006
372.32	-0.004
372.42	-0.004
372.53	-0.003
372.63	-0.003
372.74	-0.004
372.84	-0.003
372.94	-0.002
373.05	-0.006
373.15	-0.005
373.25	-0.002
373.36	-0.004
373.46	-0.005
373.56	-0.003
373.67	-0.005
373.77	-0.006
373.87	-0.006
373.98	-0.007
374.08	-0.005
374.18	-0.006
374.29	-0.003
374.39	-0.006
374.49	-0.003
374.59	-0.005
374.70	-0.005
374.80	-0.004
374.90	-0.003
375.01	-0.005
375.11	-0.001
375.21	-0.004
375.32	-0.004
375.42	-0.000
375.52	-0.002
375.63	-0.003
375.73	-0.004
375.83	-0.004
375.94	-0.005
376.04	-0.004
376.14	-0.000
376.25	-0.003
376.35	-0.007
376.45	-0.004
376.55	-0.006
376.66	-0.004
376.76	-0.002
376.86	-0.003
376.97	-0.004
377.07	-0.006
377.17	-0.001
377.28	-0.001
377.38	-0.002
377.48	-0.005
377.59	-0.001
377.69	0.003
377.79	-0.002
377.89	-0.003
378.00	0.001
378.10	0.000
378.20	-0.003
378.31	0.000
378.41	-0.001
378.51	-0.002
378.61	-0.001
378.72	-0.003
378.82	-0.001
378.92	0.001
379.03	-0.001
379.13	-0.004
379.23	-0.001
379.33	-0.000
379.44	0.001
379.54	0.000
379.64	-0.003
379.75	-0.001
379.85	-0.003
379.95	-0.001
380.05	-0.004
380.16	-0.001
380.26	-0.005
380.36	-0.001
380.47	-0.004
380.57	-0.005
380.67	-0.000
380.77	-0.004
380.88	0.001
380.98	-0.002
381.08	-0.003
381.18	-0.000
381.29	-0.003
381.39	-0.003
381.49	-0.001
381.60	-0.000
381.70	0.002
381.80	0.000
381.90	-0.001
382.01	-0.002
382.11	0.001
382.21	-0.000
382.31	-0.003
382.42	-0.002
382.52	-0.002
382.62	-0.004
382.72	-0.000
382.83	-0.002
382.93	-0.003
383.03	-0.001
383.13	-0.003
383.24	-0.001
383.34	-0.002
383.44	-0.004
383.54	-0.003
383.65	0.003
383.75	-0.001
383.85	-0.001
383.95	0.000
384.06	0.001
384.16	-0.001
384.26	-0.000
384.36	-0.001
384.47	0.001
384.57	-0.002
384.67	-0.002
384.77	-0.001
384.88	0.001
384.98	-0.005
385.08	-0.002
385.18	-0.002
385.28	-0.001
385.39	0.001
385.49	-0.003
385.59	-0.004
385.69	-0.004
385.80	0.000
385.90	-0.003
386.00	0.001
386.10	-0.003
386.21	0.001
386.31	-0.001
386.41	0.001
386.51	-0.002
386.61	0.001
386.72	-0.001
386.82	-0.000
386.92	0.002
387.02	-0.001
387.13	-0.003
387.23	0.004
387.33	-0.001
387.43	-0.002
387.53	0.002
387.64	0.002
387.74	0.001
387.84	-0.001
387.94	-0.001
388.05	0.001
388.15	0.002
388.25	0.002
388.35	0.003
388.45	0.002
388.56	-0.002
388.66	-0.000
388.76	-0.002
388.86	0.000
388.96	0.001
389.07	0.001
389.17	0.003
389.27	0.002
389.37	0.002
389.47	0.001
389.58	0.001
389.68	-0.001
389.78	0.000
389.88	0.000
389.98	0.001
390.09	-0.002
390.19	0.001
390.29	-0.000
390.39	-0.000
390.49	0.002
390.60	0.001
390.70	-0.000
390.80	0.001
390.90	0.002
391.00	-0.002
391.10	-0.002
391.21	-0.002
391.31	-0.002
391.41	-0.002
391.51	-0.001
391.61	-0.000
391.72	0.001
391.82	-0.003
391.92	0.000
392.02	0.001
392.12	0.000
392.22	0.001
392.33	0.005
392.43	-0.002
392.53	-0.002
392.63	-0.000
392.73	-0.002
392.83	-0.003
392.94	0.001
393.04	-0.002
393.14	0.001
393.24	-0.001
393.34	-0.002
393.45	-0.003
393.55	-0.005
393.65	0.002
393.75	0.001
393.85	0.001
393.95	-0.000
394.05	-0.003
394.16	-0.004
394.26	-0.003
394.36	-0.004
394.46	0.000
394.56	-0.002
394.66	-0.002
394.77	-0.004
394.87	-0.001
394.97	0.002
395.07	-0.004
395.17	-0.004
395.27	-0.003
395.37	-0.004
395.48	-0.002
395.58	-0.004
395.68	-0.004
395.78	-0.005
395.88	-0.004
395.98	-0.002
396.09	-0.007
396.19	0.001
396.29	-0.005
396.39	-0.006
396.49	-0.001
396.59	-0.004
396.69	-0.007
396.80	-0.004
396.90	-0.002
397.00	-0.000
397.10	-0.003
397.20	-0.003
397.30	-0.003
397.40	-0.005
397.50	-0.003
397.61	0.000
397.71	-0.006
397.81	-0.009
397.91	-0.006
398.01	-0.007
398.11	-0.007
398.21	-0.009
398.31	-0.006
398.42	-0.004
398.52	-0.005
398.62	-0.003
398.72	-0.004
398.82	-0.006
398.92	-0.006
399.02	-0.005
399.12	-0.005
399.23	-0.006
399.33	-0.002
399.43	-0.007
399.53	-0.004
399.63	0.001
399.73	-0.005
399.83	-0.001
399.93	-0.006
400.03	0.001
400.14	0.001
400.24	0.003
400.34	0.005
400.44	0.003
400.54	0.002
400.64	0.004
400.74	0.004
400.84	0.007
400.94	0.008
401.05	0.008
401.15	0.006
401.25	0.003
401.35	0.004
401.45	0.000
401.55	0.007
401.65	0.003
401.75	0.007
401.85	0.006
401.95	0.004
402.05	0.001
402.16	0.003
402.26	0.007
402.36	0.003
402.46	0.003
402.56	0.001
402.66	0.003
402.76	-0.000
402.86	0.003
402.96	0.001
403.06	-0.002
403.16	-0.002
403.27	0.001
403.37	-0.001
403.47	-0.001
403.57	-0.002
403.67	0.003
403.77	-0.000
403.87	0.000
403.97	-0.002
404.07	-0.001
404.17	0.001
404.27	0.002
404.37	-0.001
404.47	-0.002
404.58	0.000
404.68	0.002
404.78	0.003
404.88	0.000
404.98	-0.002
405.08	-0.003
405.18	-0.003
405.28	-0.000
405.38	-0.001
405.48	-0.008
405.58	0.000
405.68	-0.008
405.78	-0.008
405.88	-0.004
405.98	-0.000
406.09	-0.003
406.19	-0.008
406.29	-0.007
406.39	-0.005
406.49	-0.008
406.59	-0.004
406.69	-0.002
406.79	-0.004
406.89	-0.002
406.99	-0.005
407.09	-0.005
407.19	-0.003
407.29	-0.003
407.39	-0.001
407.49	-0.003
407.59	-0.002
407.69	-0.001
407.79	-0.002
407.89	-0.001
407.99	-0.009
408.10	0.002
408.20	0.005
408.30	0.002
408.40	-0.000
408.50	0.000
408.60	-0.008
408.70	-0.002
408.80	0.002
408.90	-0.004
409.00	-0.001
409.10	-0.003
409.20	-0.000
409.30	-0.001
409.40	-0.009
409.50	-0.003
409.60	-0.003
409.70	-0.007
409.80	-0.004
409.90	-0.001
410.00	-0.006
410.10	-0.002
410.20	-0.005
410.30	-0.007
410.40	-0.002
410.50	-0.003
410.60	-0.011
410.70	-0.003
410.80	-0.001
410.90	-0.007
411.00	-0.008
411.10	-0.007
411.20	-0.008
411.30	-0.010
411.40	-0.005
411.50	-0.012
411.60	-0.013
411.70	-0.004
411.80	-0.001
411.90	-0.010
412.00	-0.004
412.10	-0.011
412.20	-0.008
412.30	-0.007
412.40	-0.015
412.51	-0.012
412.61	-0.014
412.71	-0.005
412.81	-0.022
412.91	-0.021
413.01	-0.018
413.11	-0.022
413.21	-0.022
413.31	-0.015
413.40	-0.020
413.50	-0.022
413.60	-0.026
413.70	-0.012
413.80	-0.019
413.90	-0.049
414.00	-0.052
414.10	-0.046
414.20	-0.031
414.30	-0.036
>>>>>End Processed Spectral Data<<<<<
